 0.57848998
 0.57853054
 0.57857320
 0.57860963
 0.57863087
 0.57862751
 0.57859001
 0.57850908
 0.57837618
 0.57818411
 0.57792748
 0.57760308
 0.57721009
 0.57675010
 0.57622724
 0.57564781
 0.57501943
 0.57434972
 0.57364515
 0.57291077
 0.57215065
 0.57136847
 0.57056747
 0.56974994
 0.56891718
 0.56807035
 0.56721196
 0.56634681
 0.56548158
 0.56462334
 0.56377791
 0.56294910
 0.56213910
 0.56134953
 0.56058201
 0.55983811
 0.55911886
 0.55842470
 0.55775584
 0.55711250
 0.55649441
 0.55589969
 0.55532415
 0.55476205
 0.55420792
 0.55365838
 0.55311280
 0.55257288
 0.55204198
 0.55152500
 0.55102875
 0.55056237
 0.55013721
 0.54976595
 0.54946174
 0.54923779
 0.54910743
 0.54908346
 0.54917664
 0.54939320
 0.54973296
 0.55018840
 0.55074505
 0.55138231
 0.55207436
 0.55279123
 0.55350048
 0.55416936
 0.55476727
 0.55526786
 0.55565022
 0.55589912
 0.55600483
 0.55596276
 0.55577336
 0.55544170
 0.55497654
 0.55438923
 0.55369278
 0.55290135
 0.55202984
 0.55109287
 0.55010274
 0.54906672
 0.54798457
 0.54684731
 0.54563818
 0.54433577
 0.54291874
 0.54137156
 0.53969127
 0.53789513
 0.53602812
 0.53416923
 0.53243535
 0.53098240
 0.53000377
 0.52972573
 0.53039874
 0.53228285
 0.53562602
 0.54063501
 0.54744048
 0.55605952
 0.56636013
 0.57803402
 0.59058506
 0.60334228
 0.61550449
 0.62621828
 0.63467941
 0.64023316
 0.64244314
 0.64110945
 0.63624088
 0.62800302
 0.61666466
 0.60255458
 0.58603115
 0.56746281
 0.54721584
 0.52564598
 0.50309031
 0.47985698
 0.45621221
 0.43236704
 0.40846818
 0.38459838
 0.36078835
 0.33703889
 0.31334760
 0.28973360
 0.26625449
 0.24301267
 0.22015101
 0.19784108
 0.17626809
 0.15561688
 0.13606141
 0.11775898
 0.10084952
 0.08545951
 0.07170968
 0.05972494
 0.04964460
 0.04163138
 0.03587745
 0.03260545
 0.03206257
 0.03450700
 0.04018838
 0.04932481
 0.06207939
 0.07853873
 0.09869578
 0.12243829
 0.14954441
 0.17968537
 0.21243517
 0.24728638
 0.28367115
 0.32098639
 0.35862119
 0.39598412
 0.43252745
 0.46776559
 0.50128625
 0.53275501
 0.56191574
 0.58858969
 0.61267472
 0.63414444
 0.65304636
 0.66949766
 0.68367791
 0.69581825
 0.70618748
 0.71507588
 0.72277856
 0.72958013
 0.73574218
 0.74149464
 0.74703082
 0.75250559
 0.75803602
 0.76370405
 0.76956091
 0.77563283
 0.78192709
 0.78843736
 0.79514734
 0.80203317
 0.80906521
 0.81620995
 0.82343178
 0.83069385
 0.83795780
 0.84518306
 0.85232633
 0.85934191
 0.86618222
 0.87279782
 0.87913673
 0.88514369
 0.89076053
 0.89592821
 0.90058965
 0.90469215
 0.90818834
 0.91103598
 0.91319733
 0.91463894
 0.91533168
 0.91525097
 0.91437668
 0.91269320
 0.91019011
 0.90686328
 0.90271614
 0.89776022
 0.89201474
 0.88550587
 0.87826640
 0.87033626
 0.86176327
 0.85260335
 0.84291944
 0.83277966
 0.82225516
 0.81141860
 0.80034324
 0.78910219
 0.77776727
 0.76640753
 0.75508778
 0.74386785
 0.73280261
 0.72194214
 0.71133120
 0.70100839
 0.69100562
 0.68134886
 0.67205953
 0.66315612
 0.65465512
 0.64657140
 0.63891835
 0.63170811
 0.62495132
 0.61865615
 0.61282651
 0.60746021
 0.60254809
 0.59807474
 0.59402039
 0.59036250
 0.58707653
 0.58413573
 0.58151120
 0.57917282
 0.57709102
 0.57523856
 0.57359151
 0.57212961
 0.57083618
 0.56969779
 0.56870374
 0.56784504
 0.56711304
 0.56649836
 0.56599065
 0.56557930
 0.56525459
 0.56500845
 0.56483453
 0.56472766
 0.56468352
 0.56469887
 0.56477205
 0.56490335
 0.56509434
 0.56534661
 0.56566026
 0.56603325
 0.56646153
 0.56693967
 0.56746087
 0.56801645
 0.56859529
 0.56918404
 0.56976830
 0.57033445
 0.57087094
 0.57136870
 0.57182096
 0.57222300
 0.57257207
 0.57286721
 0.57310856
 0.57329635
 0.57343032
 0.57350984
 0.57353441
 0.57350394
 0.57341847
 0.57327774
 0.57308082
 0.57282635
 0.57251307
 0.57214051
 0.57170894
 0.57121877
 0.57067002
 0.57006255
 0.56939677
 0.56867437
 0.56789848
 0.56707323
 0.56620320
 0.56529335
 0.56434968
 0.56337992
 0.56239350
 0.56140071
 0.56041197
 0.55943755
 0.55848758
 0.55757188
 0.55669897
 0.55587473
 0.55510121
 0.55437669
 0.55369673
 0.55305553
 0.55244679
 0.55186396
 0.55130059
 0.55075097
 0.55021093
 0.54967829
 0.54915255
 0.54863409
 0.54812327
 0.54761991
 0.54712334
 0.54663251
 0.54614593
 0.54566158
 0.54517735
 0.54469184
 0.54420528
 0.54371999
 0.54324026
 0.54277170
 0.54232041
 0.54189245
 0.54149348
 0.54112856
 0.54080157
 0.54051460
 0.54026764
 0.54005907
 0.53988643
 0.53974713
 0.53963835
 0.53955646
 0.53949665
 0.53945327
 0.53942107
 0.53939628
 0.53937722
 0.53936410
 0.53935841
 0.53936219
 0.53937733
 0.53940435
 0.53944066
 0.53947832
 0.53950244
 0.53949098
 0.53941639
 0.53924839
 0.53895748
 0.53851934
 0.53792074
 0.53716722
 0.53629144
 0.53536080
 0.53448228
 0.53380396
 0.53351301
 0.53382994
 0.53499861
 0.53727033
 0.54088143
 0.54602500
 0.55281916
 0.56127491
 0.57126644
 0.58250765
 0.59453984
 0.60673871
 0.61834919
 0.62855245
 0.63655832
 0.64170126
 0.64351019
 0.64173182
 0.63630911
 0.62733475
 0.61500095
 0.59955845
 0.58128829
 0.56048551
 0.53745155
 0.51249211
 0.48591625
 0.45803384
 0.42915006
 0.39955781
 0.36953095
 0.33932221
 0.30916825
 0.27930125
 0.24996234
 0.22141061
 0.19392258
 0.16778093
 0.14325558
 0.12058274
 0.09994728
 0.08147178
 0.06521377
 0.05117154
 0.03929787
 0.02952003
 0.02176317
 0.01597393
 0.01214130
 0.01031236
 0.01060051
 0.01318434
 0.01829581
 0.02619903
 0.03716221
 0.05142689
 0.06917758
 0.09051487
 0.11543359
 0.14380770
 0.17538332
 0.20978145
 0.24651044
 0.28498688
 0.32456267
 0.36455606
 0.40428450
 0.44309657
 0.48039974
 0.51568212
 0.54852813
 0.57862900
 0.60578872
 0.62992548
 0.65106821
 0.66934752
 0.68498064
 0.69825126
 0.70948626
 0.71903194
 0.72723235
 0.73441134
 0.74085903
 0.74682311
 0.75250491
 0.75805980
 0.76360075
 0.76920385
 0.77491436
 0.78075302
 0.78672266
 0.79281481
 0.79901548
 0.80530901
 0.81167956
 0.81811107
 0.82458696
 0.83109015
 0.83760332
 0.84410865
 0.85058661
 0.85701421
 0.86336356
 0.86960118
 0.87568775
 0.88157794
 0.88722006
 0.89255607
 0.89752250
 0.90205254
 0.90607872
 0.90953516
 0.91235901
 0.91449107
 0.91587662
 0.91646680
 0.91622027
 0.91510443
 0.91309545
 0.91017772
 0.90634334
 0.90159279
 0.89593629
 0.88939504
 0.88200167
 0.87379991
 0.86484427
 0.85520004
 0.84494297
 0.83415824
 0.82293835
 0.81138039
 0.79958362
 0.78764749
 0.77566994
 0.76374495
 0.75195919
 0.74038844
 0.72909524
 0.71812851
 0.70752492
 0.69731090
 0.68750441
 0.67811639
 0.66915245
 0.66061506
 0.65250601
 0.64482817
 0.63758589
 0.63078407
 0.62442667
 0.61851553
 0.61304969
 0.60802468
 0.60343151
 0.59925581
 0.59547776
 0.59207315
 0.58901505
 0.58627539
 0.58382600
 0.58163949
 0.57969043
 0.57795695
 0.57642203
 0.57507380
 0.57390430
 0.57290721
 0.57207581
 0.57140189
 0.57087577
 0.57048660
 0.57022234
 0.57006951
 0.57001339
 0.57003905
 0.57013305
 0.57028475
 0.57048647
 0.57073243
 0.57101752
 0.57133664
 0.57168496
 0.57205815
 0.57245215
 0.57286222
 0.57328204
 0.57370323
 0.57411561
 0.57450768
 0.57486703
 0.57518051
 0.57543490
 0.57561835
 0.57572231
 0.57574282
 0.57568033
 0.57553811
 0.57532043
 0.57503146
 0.57467549
 0.57425777
 0.57378471
 0.57326289
 0.57269777
 0.57209300
 0.57145074
 0.57077208
 0.57005724
 0.56930530
 0.56851422
 0.56768171
 0.56680678
 0.56589103
 0.56493886
 0.56395661
 0.56295171
 0.56193231
 0.56090738
 0.55988650
 0.55887894
 0.55789244
 0.55693268
 0.55600358
 0.55510808
 0.55424839
 0.55342559
 0.55263921
 0.55188734
 0.55116756
 0.55047802
 0.54981787
 0.54918660
 0.54858284
 0.54800340
 0.54744335
 0.54689701
 0.54635913
 0.54582560
 0.54529365
 0.54476206
 0.54423174
 0.54370655
 0.54319372
 0.54270304
 0.54224506
 0.54182892
 0.54146085
 0.54114343
 0.54087534
 0.54065117
 0.54046175
 0.54029507
 0.54013815
 0.53997907
 0.53980854
 0.53962049
 0.53941160
 0.53918072
 0.53892879
 0.53865936
 0.53837871
 0.53809540
 0.53781924
 0.53756047
 0.53732924
 0.53713556
 0.53698913
 0.53689847
 0.53686927
 0.53690257
 0.53699330
 0.53712972
 0.53729323
 0.53745824
 0.53759216
 0.53765616
 0.53760750
 0.53740320
 0.53700431
 0.53638031
 0.53551413
 0.53440841
 0.53309366
 0.53163695
 0.53014955
 0.52879148
 0.52777215
 0.52734636
 0.52780449
 0.52945564
 0.53260252
 0.53750785
 0.54435410
 0.55320040
 0.56394189
 0.57627756
 0.58969359
 0.60347047
 0.61672273
 0.62847621
 0.63777709
 0.64381022
 0.64599253
 0.64401302
 0.63781486
 0.62753962
 0.61346157
 0.59593167
 0.57533782
 0.55208038
 0.52655903
 0.49916677
 0.47028711
 0.44029151
 0.40953553
 0.37835372
 0.34705588
 0.31592799
 0.28523937
 0.25525373
 0.22623808
 0.19846367
 0.17219632
 0.14767917
 0.12511363
 0.10464414
 0.08634968
 0.07024173
 0.05626811
 0.04432309
 0.03426450
 0.02593705
 0.01919873
 0.01394679
 0.01014033
 0.00781769
 0.00710679
 0.00822651
 0.01147720
 0.01722050
 0.02584958
 0.03775323
 0.05327707
 0.07268539
 0.09612641
 0.12360353
 0.15495548
 0.18984849
 0.22778277
 0.26811385
 0.31008686
 0.35287950
 0.39564869
 0.43757553
 0.47790507
 0.51597837
 0.55125602
 0.58333376
 0.61195087
 0.63699254
 0.65848594
 0.67658880
 0.69156980
 0.70378157
 0.71362966
 0.72154148
 0.72793901
 0.73321733
 0.73772917
 0.74177508
 0.74559875
 0.74938702
 0.75327415
 0.75734877
 0.76166205
 0.76623582
 0.77107000
 0.77614959
 0.78145079
 0.78694598
 0.79260706
 0.79840741
 0.80432287
 0.81033225
 0.81641767
 0.82256458
 0.82876106
 0.83499611
 0.84125740
 0.84752921
 0.85379117
 0.86001764
 0.86617715
 0.87223133
 0.87813412
 0.88383181
 0.88926460
 0.89436910
 0.89908105
 0.90333711
 0.90707548
 0.91023624
 0.91276208
 0.91459938
 0.91569906
 0.91601683
 0.91551307
 0.91415326
 0.91190924
 0.90876098
 0.90469791
 0.89971951
 0.89383528
 0.88706473
 0.87943817
 0.87099802
 0.86179957
 0.85191041
 0.84140845
 0.83037951
 0.81891536
 0.80711213
 0.79506845
 0.78288285
 0.77065087
 0.75846293
 0.74640317
 0.73454895
 0.72297025
 0.71172883
 0.70087731
 0.69045881
 0.68050774
 0.67105123
 0.66211049
 0.65370127
 0.64583359
 0.63851130
 0.63173218
 0.62548839
 0.61976711
 0.61455054
 0.60981580
 0.60553509
 0.60167688
 0.59820791
 0.59509551
 0.59230949
 0.58982306
 0.58761315
 0.58566053
 0.58394986
 0.58246911
 0.58120788
 0.58015484
 0.57929553
 0.57861137
 0.57808032
 0.57767857
 0.57738235
 0.57716932
 0.57701976
 0.57691737
 0.57684979
 0.57680826
 0.57678656
 0.57677947
 0.57678156
 0.57678693
 0.57678967
 0.57678441
 0.57676645
 0.57673140
 0.57667488
 0.57659259
 0.57648054
 0.57633504
 0.57615222
 0.57592745
 0.57565514
 0.57532914
 0.57494346
 0.57449308
 0.57397428
 0.57338456
 0.57272270
 0.57198938
 0.57118847
 0.57032763
 0.56941759
 0.56847036
 0.56749753
 0.56650985
 0.56551765
 0.56453134
 0.56356087
 0.56261438
 0.56169676
 0.56080934
 0.55995047
 0.55911613
 0.55830029
 0.55749511
 0.55669169
 0.55588147
 0.55505806
 0.55421892
 0.55336611
 0.55250584
 0.55164712
 0.55080005
 0.54997449
 0.54917896
 0.54841962
 0.54769962
 0.54701929
 0.54637722
 0.54577188
 0.54520265
 0.54466972
 0.54417306
 0.54371135
 0.54328169
 0.54287986
 0.54250066
 0.54213792
 0.54178449
 0.54143286
 0.54107644
 0.54071076
 0.54033405
 0.53994679
 0.53955082
 0.53914867
 0.53874361
 0.53834021
 0.53794449
 0.53756305
 0.53720145
 0.53686284
 0.53654786
 0.53625553
 0.53598442
 0.53573320
 0.53550059
 0.53528510
 0.53508509
 0.53489893
 0.53472513
 0.53456202
 0.53440749
 0.53425923
 0.53411580
 0.53397761
 0.53384727
 0.53372872
 0.53362622
 0.53354389
 0.53348630
 0.53345956
 0.53347153
 0.53353031
 0.53364126
 0.53380388
 0.53400959
 0.53424086
 0.53447114
 0.53466547
 0.53478161
 0.53477269
 0.53459182
 0.53419856
 0.53356632
 0.53268964
 0.53159153
 0.53033082
 0.52900905
 0.52777532
 0.52682695
 0.52640435
 0.52677937
 0.52823725
 0.53105271
 0.53546029
 0.54161935
 0.54957559
 0.55922357
 0.57027718
 0.58225616
 0.59449680
 0.60619301
 0.61646948
 0.62447839
 0.62949729
 0.63099894
 0.62867397
 0.62240951
 0.61224427
 0.59832168
 0.58085415
 0.56010161
 0.53636213
 0.50996992
 0.48129622
 0.45074963
 0.41877344
 0.38583882
 0.35243324
 0.31904482
 0.28614480
 0.25417208
 0.22352282
 0.19454397
 0.16752677
 0.14269804
 0.12021108
 0.10014057
 0.08248415
 0.06716994
 0.05406783
 0.04300290
 0.03377114
 0.02615858
 0.01996343
 0.01501936
 0.01121685
 0.00852007
 0.00697818
 0.00673040
 0.00800411
 0.01110483
 0.01639698
 0.02427559
 0.03513118
 0.04931135
 0.06708381
 0.08860451
 0.11389363
 0.14282089
 0.17510148
 0.21030377
 0.24786862
 0.28713862
 0.32739359
 0.36788887
 0.40789306
 0.44672262
 0.48377069
 0.51852847
 0.55059815
 0.57969814
 0.60566237
 0.62843626
 0.64807067
 0.66471331
 0.67859611
 0.69001775
 0.69932258
 0.70687844
 0.71305552
 0.71820765
 0.72265650
 0.72667936
 0.73050116
 0.73429139
 0.73816570
 0.74219130
 0.74639508
 0.75077306
 0.75530069
 0.75994305
 0.76466415
 0.76943412
 0.77423298
 0.77905093
 0.78388600
 0.78874083
 0.79362001
 0.79852839
 0.80346973
 0.80844553
 0.81345382
 0.81848868
 0.82354080
 0.82859889
 0.83365100
 0.83868479
 0.84368671
 0.84864101
 0.85352956
 0.85833212
 0.86302626
 0.86758627
 0.87198199
 0.87617899
 0.88014036
 0.88382908
 0.88720972
 0.89024854
 0.89291286
 0.89517029
 0.89698860
 0.89833613
 0.89918189
 0.89949503
 0.89924372
 0.89839455
 0.89691346
 0.89476805
 0.89193045
 0.88837942
 0.88410163
 0.87909261
 0.87335835
 0.86691714
 0.85980062
 0.85205322
 0.84373002
 0.83489398
 0.82561339
 0.81595960
 0.80600481
 0.79581939
 0.78546933
 0.77501473
 0.76450981
 0.75400414
 0.74354395
 0.73317282
 0.72293177
 0.71285973
 0.70299487
 0.69337616
 0.68404408
 0.67503930
 0.66640006
 0.65815927
 0.65034257
 0.64296757
 0.63604375
 0.62957245
 0.62354703
 0.61795368
 0.61277335
 0.60798446
 0.60356530
 0.59949528
 0.59575506
 0.59232651
 0.58919319
 0.58634140
 0.58376058
 0.58144254
 0.57937976
 0.57756347
 0.57598272
 0.57462431
 0.57347325
 0.57251313
 0.57172638
 0.57109480
 0.57060047
 0.57022658
 0.56995765
 0.56977892
 0.56967555
 0.56963239
 0.56963470
 0.56966923
 0.56972482
 0.56979221
 0.56986326
 0.56993037
 0.56998650
 0.57002588
 0.57004481
 0.57004192
 0.57001783
 0.56997452
 0.56991481
 0.56984178
 0.56975818
 0.56966520
 0.56956140
 0.56944239
 0.56930188
 0.56913311
 0.56892987
 0.56868645
 0.56839717
 0.56805629
 0.56765893
 0.56720245
 0.56668748
 0.56611758
 0.56549787
 0.56483357
 0.56412953
 0.56339059
 0.56262188
 0.56182849
 0.56101467
 0.56018349
 0.55933744
 0.55847951
 0.55761399
 0.55674618
 0.55588141
 0.55502393
 0.55417661
 0.55334131
 0.55251941
 0.55171195
 0.55091945
 0.55014182
 0.54937862
 0.54862970
 0.54789573
 0.54717827
 0.54647942
 0.54580130
 0.54514579
 0.54451494
 0.54391135
 0.54333787
 0.54279635
 0.54228644
 0.54180526
 0.54134801
 0.54090901
 0.54048229
 0.54006176
 0.53964171
 0.53921804
 0.53878979
 0.53835965
 0.53793290
 0.53751527
 0.53711143
 0.53672474
 0.53635788
 0.53601339
 0.53569336
 0.53539871
 0.53512877
 0.53488147
 0.53465395
 0.53444282
 0.53424410
 0.53405302
 0.53386446
 0.53367412
 0.53347988
 0.53328250
 0.53308510
 0.53289153
 0.53270456
 0.53252494
 0.53235157
 0.53218246
 0.53201525
 0.53184717
 0.53167498
 0.53149550
 0.53130681
 0.53110927
 0.53090591
 0.53070216
 0.53050538
 0.53032477
 0.53017114
 0.53005636
 0.52999190
 0.52998724
 0.53004877
 0.53017956
 0.53037956
 0.53064499
 0.53096697
 0.53132952
 0.53170832
 0.53207075
 0.53237720
 0.53258315
 0.53264157
 0.53250598
 0.53213484
 0.53149788
 0.53058386
 0.52940862
 0.52802257
 0.52651735
 0.52503149
 0.52375412
 0.52292438
 0.52282465
 0.52376598
 0.52606524
 0.53001481
 0.53584619
 0.54368965
 0.55353320
 0.56518644
 0.57825672
 0.59214663
 0.60608111
 0.61916936
 0.63049912
 0.63924821
 0.64478576
 0.64673299
 0.64496807
 0.63958281
 0.63081460
 0.61897747
 0.60440728
 0.58742632
 0.56832671
 0.54736777
 0.52478172
 0.50078197
 0.47557073
 0.44934440
 0.42229639
 0.39461786
 0.36649768
 0.33812365
 0.30968667
 0.28138827
 0.25344953
 0.22611731
 0.19966305
 0.17437159
 0.15052125
 0.12836062
 0.10808864
 0.08984202
 0.07369005
 0.05963491
 0.04761629
 0.03752066
 0.02919585
 0.02247006
 0.01717305
 0.01315685
 0.01031422
 0.00859390
 0.00801173
 0.00865590
 0.01068472
 0.01431638
 0.01981188
 0.02745336
 0.03752042
 0.05026630
 0.06589543
 0.08454348
 0.10626128
 0.13100404
 0.15862690
 0.18888637
 0.22144699
 0.25589257
 0.29174249
 0.32847294
 0.36554192
 0.40241460
 0.43858571
 0.47359594
 0.50704257
 0.53858588
 0.56795338
 0.59494281
 0.61942415
 0.64134046
 0.66070750
 0.67761129
 0.69220250
 0.70468666
 0.71530987
 0.72434144
 0.73205575
 0.73871595
 0.74456141
 0.74979937
 0.75460039
 0.75909658
 0.76338267
 0.76751998
 0.77154323
 0.77546905
 0.77930433
 0.78305324
 0.78672276
 0.79032724
 0.79389178
 0.79745399
 0.80106293
 0.80477532
 0.80865000
 0.81274173
 0.81709559
 0.82174210
 0.82669304
 0.83193851
 0.83744595
 0.84316207
 0.84901752
 0.85493343
 0.86082801
 0.86662195
 0.87224165
 0.87762062
 0.88269964
 0.88742613
 0.89175264
 0.89563464
 0.89902817
 0.90188861
 0.90417109
 0.90583257
 0.90683404
 0.90714207
 0.90672942
 0.90557534
 0.90366626
 0.90099672
 0.89756967
 0.89339559
 0.88849103
 0.88287731
 0.87658024
 0.86963008
 0.86206119
 0.85391101
 0.84521914
 0.83602728
 0.82638024
 0.81632739
 0.80592354
 0.79522826
 0.78430428
 0.77321566
 0.76202707
 0.75080388
 0.73961252
 0.72851978
 0.71759108
 0.70688823
 0.69646775
 0.68637978
 0.67666737
 0.66736550
 0.65850023
 0.65008892
 0.64214171
 0.63466361
 0.62765603
 0.62111721
 0.61504196
 0.60942167
 0.60424517
 0.59949990
 0.59517259
 0.59124890
 0.58771254
 0.58454489
 0.58172573
 0.57923472
 0.57705247
 0.57516060
 0.57354060
 0.57217283
 0.57103632
 0.57010940
 0.56937037
 0.56879760
 0.56836930
 0.56806391
 0.56786115
 0.56774323
 0.56769504
 0.56770329
 0.56775510
 0.56783723
 0.56793658
 0.56804136
 0.56814186
 0.56823026
 0.56830002
 0.56834578
 0.56836434
 0.56835555
 0.56832237
 0.56826927
 0.56820000
 0.56811559
 0.56801377
 0.56788941
 0.56773537
 0.56754336
 0.56730472
 0.56701176
 0.56665925
 0.56624584
 0.56577445
 0.56525160
 0.56468570
 0.56408512
 0.56345689
 0.56280618
 0.56213596
 0.56144658
 0.56073528
 0.55999674
 0.55922497
 0.55841575
 0.55756813
 0.55668420
 0.55576778
 0.55482366
 0.55385783
 0.55287813
 0.55189436
 0.55091738
 0.54995769
 0.54902434
 0.54812476
 0.54726515
 0.54645035
 0.54568293
 0.54496199
 0.54428269
 0.54363714
 0.54301623
 0.54241160
 0.54181681
 0.54122779
 0.54064289
 0.54006296
 0.53949132
 0.53893349
 0.53839632
 0.53788681
 0.53741091
 0.53697283
 0.53657510
 0.53621880
 0.53590361
 0.53562744
 0.53538619
 0.53517411
 0.53498453
 0.53481067
 0.53464607
 0.53448463
 0.53432065
 0.53414922
 0.53396710
 0.53377324
 0.53356842
 0.53335397
 0.53313058
 0.53289789
 0.53265503
 0.53240143
 0.53213740
 0.53186437
 0.53158501
 0.53130364
 0.53102651
 0.53076158
 0.53051742
 0.53030175
 0.53012056
 0.52997825
 0.52987846
 0.52982471
 0.52982030
 0.52986763
 0.52996767
 0.53012014
 0.53032416
 0.53057872
 0.53088184
 0.53122895
 0.53161120
 0.53201479
 0.53242110
 0.53280706
 0.53314535
 0.53340427
 0.53354810
 0.53353877
 0.53333930
 0.53291845
 0.53225600
 0.53134840
 0.53021527
 0.52890713
 0.52751357
 0.52617003
 0.52506084
 0.52441694
 0.52450748
 0.52562493
 0.52806339
 0.53208996
 0.53790989
 0.54562784
 0.55520937
 0.56644826
 0.57894547
 0.59210725
 0.60516998
 0.61725809
 0.62747412
 0.63500684
 0.63922948
 0.63975804
 0.63645460
 0.62938557
 0.61875925
 0.60486573
 0.58803130
 0.56858949
 0.54686626
 0.52317543
 0.49782021
 0.47109699
 0.44329778
 0.41470871
 0.38560477
 0.35624375
 0.32686382
 0.29768786
 0.26893394
 0.24082760
 0.21360977
 0.18753589
 0.16286529
 0.13984372
 0.11868380
 0.09954750
 0.08253349
 0.06767059
 0.05491759
 0.04416910
 0.03526717
 0.02801760
 0.02221017
 0.01764110
 0.01413627
 0.01157352
 0.00990203
 0.00915643
 0.00946349
 0.01104075
 0.01418712
 0.01926557
 0.02667858
 0.03683699
 0.05012460
 0.06686177
 0.08727215
 0.11145559
 0.13936943
 0.17081914
 0.20545911
 0.24280430
 0.28225295
 0.32311839
 0.36466622
 0.40615194
 0.44685522
 0.48610892
 0.52332297
 0.55800352
 0.58976761
 0.61835284
 0.64362199
 0.66556247
 0.68427993
 0.69998565
 0.71297717
 0.72361327
 0.73228588
 0.73939242
 0.74531217
 0.75038883
 0.75491975
 0.75915071
 0.76327493
 0.76743522
 0.77172886
 0.77621461
 0.78092088
 0.78585363
 0.79100316
 0.79634950
 0.80186661
 0.80752597
 0.81329933
 0.81916051
 0.82508601
 0.83105477
 0.83704775
 0.84304769
 0.84903904
 0.85500781
 0.86094104
 0.86682580
 0.87264814
 0.87839233
 0.88404054
 0.88957224
 0.89496306
 0.90018356
 0.90519881
 0.90996895
 0.91445008
 0.91859486
 0.92235269
 0.92567012
 0.92849198
 0.93076316
 0.93243042
 0.93344379
 0.93375723
 0.93332883
 0.93212139
 0.93010354
 0.92725105
 0.92354733
 0.91898269
 0.91355305
 0.90725929
 0.90010749
 0.89210955
 0.88328361
 0.87365430
 0.86325344
 0.85212185
 0.84031235
 0.82789288
 0.81494885
 0.80158359
 0.78791685
 0.77408143
 0.76021856
 0.74647266
 0.73298551
 0.71989028
 0.70730578
 0.69533195
 0.68404716
 0.67350713
 0.66374458
 0.65476903
 0.64656737
 0.63910638
 0.63233771
 0.62620470
 0.62064899
 0.61561527
 0.61105369
 0.60692088
 0.60318030
 0.59980214
 0.59676231
 0.59404035
 0.59161697
 0.58947230
 0.58758573
 0.58593698
 0.58450729
 0.58327979
 0.58223916
 0.58137111
 0.58066246
 0.58010142
 0.57967771
 0.57938164
 0.57920251
 0.57912730
 0.57914035
 0.57922428
 0.57936130
 0.57953437
 0.57972806
 0.57992912
 0.58012692
 0.58031358
 0.58048342
 0.58063193
 0.58075437
 0.58084499
 0.58089740
 0.58090572
 0.58086541
 0.58077294
 0.58062483
 0.58041712
 0.58014607
 0.57980949
 0.57940776
 0.57894392
 0.57842276
 0.57784971
 0.57723015
 0.57656945
 0.57587295
 0.57514564
 0.57439174
 0.57361487
 0.57281897
 0.57200928
 0.57119235
 0.57037505
 0.56956327
 0.56876120
 0.56797164
 0.56719674
 0.56643852
 0.56569850
 0.56497710
 0.56427360
 0.56358687
 0.56291645
 0.56226326
 0.56162959
 0.56101870
 0.56043435
 0.55988066
 0.55936179
 0.55888130
 0.55844115
 0.55804080
 0.55767690
 0.55734385
 0.55703468
 0.55674181
 0.55645723
 0.55617263
 0.55588017
 0.55557429
 0.55525361
 0.55492169
 0.55458594
 0.55425525
 0.55393766
 0.55363912
 0.55336355
 0.55311339
 0.55288987
 0.55269291
 0.55252115
 0.55237252
 0.55224504
 0.55213704
 0.55204664
 0.55197063
 0.55190375
 0.55183898
 0.55176889
 0.55168706
 0.55158879
 0.55147112
 0.55133284
 0.55117496
 0.55100132
 0.55081856
 0.55063511
 0.55045950
 0.55029902
 0.55015926
 0.55004431
 0.54995673
 0.54989747
 0.54986583
 0.54986015
 0.54987882
 0.54992098
 0.54998613
 0.55007244
 0.55017446
 0.55028112
 0.55037473
 0.55043109
 0.55042037
 0.55030834
 0.55005793
 0.54963205
 0.54899858
 0.54813766
 0.54705032
 0.54576689
 0.54435445
 0.54292293
 0.54162951
 0.54067957
 0.54032195
 0.54083698
 0.54251698
 0.54564004
 0.55043803
 0.55706016
 0.56553425
 0.57572970
 0.58732831
 0.59981131
 0.61247150
 0.62445813
 0.63485620
 0.64279025
 0.64752777
 0.64855151
 0.64558169
 0.63855261
 0.62756476
 0.61283420
 0.59465189
 0.57335643
 0.54931846
 0.52293207
 0.49460874
 0.46477038
 0.43384039
 0.40223320
 0.37034388
 0.33853993
 0.30715767
 0.27650418
 0.24686356
 0.21850414
 0.19168191
 0.16663604
 0.14357581
 0.12266240
 0.10399200
 0.08758624
 0.07339190
 0.06128899
 0.05110533
 0.04263583
 0.03566611
 0.02999921
 0.02548339
 0.02203765
 0.01967191
 0.01849944
 0.01874033
 0.02071505
 0.02482759
 0.03153776
 0.04132391
 0.05463864
 0.07186198
 0.09325712
 0.11893353
 0.14882100
 0.18265726
 0.21999099
 0.26020056
 0.30252752
 0.34612112
 0.39008857
 0.43354529
 0.47566071
 0.51569657
 0.55303653
 0.58720683
 0.61788831
 0.64491968
 0.66829222
 0.68813664
 0.70470282
 0.71833380
 0.72943583
 0.73844656
 0.74580476
 0.75192465
 0.75717716
 0.76187877
 0.76628700
 0.77060115
 0.77496645
 0.77948062
 0.78420170
 0.78915667
 0.79434964
 0.79976856
 0.80539020
 0.81118407
 0.81711623
 0.82315301
 0.82926416
 0.83542476
 0.84161574
 0.84782301
 0.85403576
 0.86024425
 0.86643736
 0.87259981
 0.87870916
 0.88473346
 0.89063036
 0.89634818
 0.90182836
 0.90700857
 0.91182549
 0.91621692
 0.92012330
 0.92348920
 0.92626473
 0.92840641
 0.92987717
 0.93064576
 0.93068640
 0.92997934
 0.92851170
 0.92627764
 0.92327735
 0.91951527
 0.91499844
 0.90973556
 0.90373682
 0.89701364
 0.88957797
 0.88144169
 0.87261766
 0.86312257
 0.85298088
 0.84222829
 0.83091395
 0.81910119
 0.80686739
 0.79430305
 0.78150998
 0.76859818
 0.75568146
 0.74287253
 0.73027877
 0.71799969
 0.70612556
 0.69473635
 0.68390029
 0.67367240
 0.66409390
 0.65519271
 0.64698450
 0.63947341
 0.63265184
 0.62649993
 0.62098592
 0.61606777
 0.61169607
 0.60781715
 0.60437597
 0.60131874
 0.59859542
 0.59616204
 0.59398195
 0.59202533
 0.59026735
 0.58868621
 0.58726231
 0.58597882
 0.58482272
 0.58378516
 0.58286085
 0.58204688
 0.58134178
 0.58074515
 0.58025749
 0.57987985
 0.57961292
 0.57945581
 0.57940503
 0.57945432
 0.57959498
 0.57981600
 0.58010367
 0.58044104
 0.58080811
 0.58118297
 0.58154364
 0.58186973
 0.58214360
 0.58235092
 0.58248099
 0.58252703
 0.58248638
 0.58236021
 0.58215258
 0.58186921
 0.58151672
 0.58110249
 0.58063458
 0.58012124
 0.57956970
 0.57898500
 0.57836993
 0.57772606
 0.57705497
 0.57635867
 0.57563898
 0.57489678
 0.57413187
 0.57334403
 0.57253462
 0.57170758
 0.57086935
 0.57002784
 0.56919124
 0.56836714
 0.56756184
 0.56677968
 0.56602220
 0.56528755
 0.56457102
 0.56386642
 0.56316787
 0.56247102
 0.56177356
 0.56107515
 0.56037739
 0.55968382
 0.55899987
 0.55833229
 0.55768801
 0.55707282
 0.55649062
 0.55594356
 0.55543281
 0.55495916
 0.55452309
 0.55412456
 0.55376282
 0.55343649
 0.55314374
 0.55288252
 0.55265072
 0.55244597
 0.55226527
 0.55210465
 0.55195908
 0.55182249
 0.55168800
 0.55154838
 0.55139697
 0.55122888
 0.55104192
 0.55083699
 0.55061771
 0.55038935
 0.55015778
 0.54992881
 0.54970826
 0.54950193
 0.54931511
 0.54915160
 0.54901298
 0.54889845
 0.54880535
 0.54872975
 0.54866697
 0.54861227
 0.54856196
 0.54851493
 0.54847370
 0.54844430
 0.54843465
 0.54845227
 0.54850205
 0.54858456
 0.54869487
 0.54882136
 0.54894444
 0.54903580
 0.54905890
 0.54897133
 0.54872881
 0.54829057
 0.54762565
 0.54671981
 0.54558337
 0.54425946
 0.54283194
 0.54143125
 0.54023696
 0.53947582
 0.53941491
 0.54034900
 0.54258071
 0.54639265
 0.55201169
 0.55956832
 0.56905513
 0.58029036
 0.59289274
 0.60627515
 0.61966490
 0.63215753
 0.64280532
 0.65072800
 0.65521744
 0.65580347
 0.65226414
 0.64459006
 0.63292862
 0.61753121
 0.59871399
 0.57683277
 0.55226830
 0.52541748
 0.49668749
 0.46649026
 0.43523589
 0.40332423
 0.37113549
 0.33902317
 0.30731226
 0.27630399
 0.24628386
 0.21752754
 0.19029957
 0.16484311
 0.14136402
 0.12001528
 0.10088702
 0.08400379
 0.06932812
 0.05676962
 0.04619956
 0.03747109
 0.03044390
 0.02500993
 0.02111717
 0.01878870
 0.01813516
 0.01935902
 0.02274876
 0.02866165
 0.03749533
 0.04964990
 0.06548481
 0.08527557
 0.10917487
 0.13718212
 0.16912411
 0.20464933
 0.24323735
 0.28422307
 0.32683331
 0.37023098
 0.41356139
 0.45599599
 0.49677037
 0.53521578
 0.57078370
 0.60306336
 0.63179247
 0.65686141
 0.67831030
 0.69631742
 0.71117829
 0.72327641
 0.73304933
 0.74095432
 0.74743812
 0.75291321
 0.75774144
 0.76222430
 0.76659897
 0.77103936
 0.77566139
 0.78053172
 0.78567831
 0.79110076
 0.79677897
 0.80267997
 0.80876368
 0.81498817
 0.82131373
 0.82770514
 0.83413190
 0.84056719
 0.84698676
 0.85336819
 0.85969035
 0.86593259
 0.87207315
 0.87808735
 0.88394620
 0.88961572
 0.89505698
 0.90022644
 0.90507613
 0.90955382
 0.91360372
 0.91716828
 0.92019061
 0.92261653
 0.92439546
 0.92548041
 0.92582826
 0.92540058
 0.92416505
 0.92209640
 0.91917656
 0.91539449
 0.91074648
 0.90523736
 0.89888174
 0.89170481
 0.88374231
 0.87504002
 0.86565326
 0.85564644
 0.84509225
 0.83407006
 0.82266341
 0.81095749
 0.79903753
 0.78698812
 0.77489308
 0.76283469
 0.75089237
 0.73914088
 0.72764907
 0.71647948
 0.70568843
 0.69532560
 0.68543297
 0.67604353
 0.66718072
 0.65885884
 0.65108409
 0.64385564
 0.63716632
 0.63100330
 0.62534917
 0.62018362
 0.61548502
 0.61123140
 0.60740062
 0.60397008
 0.60091659
 0.59821667
 0.59584718
 0.59378562
 0.59200975
 0.59049659
 0.58922183
 0.58815999
 0.58728516
 0.58657180
 0.58599498
 0.58553068
 0.58515630
 0.58485190
 0.58460155
 0.58439438
 0.58422458
 0.58409063
 0.58399442
 0.58394076
 0.58393700
 0.58399220
 0.58411562
 0.58431503
 0.58459543
 0.58495862
 0.58540338
 0.58592557
 0.58651763
 0.58716758
 0.58785833
 0.58856792
 0.58927084
 0.58993963
 0.59054624
 0.59106283
 0.59146240
 0.59171973
 0.59181239
 0.59172099
 0.59142864
 0.59092010
 0.59018215
 0.58920526
 0.58798587
 0.58652794
 0.58484339
 0.58295174
 0.58087968
 0.57866109
 0.57633680
 0.57395344
 0.57156102
 0.56921008
 0.56694920
 0.56482330
 0.56287221
 0.56112890
 0.55961700
 0.55834812
 0.55732005
 0.55651701
 0.55591179
 0.55546900
 0.55514861
 0.55490946
 0.55471296
 0.55452645
 0.55432554
 0.55409467
 0.55382602
 0.55351755
 0.55317106
 0.55279097
 0.55238376
 0.55195731
 0.55151986
 0.55107856
 0.55063850
 0.55020287
 0.54977368
 0.54935255
 0.54894096
 0.54854027
 0.54815188
 0.54777769
 0.54742038
 0.54708328
 0.54676975
 0.54648259
 0.54622415
 0.54599707
 0.54580508
 0.54565255
 0.54554282
 0.54547626
 0.54544915
 0.54545404
 0.54548081
 0.54551795
 0.54555346
 0.54557579
 0.54557524
 0.54554582
 0.54548700
 0.54540419
 0.54530773
 0.54521095
 0.54512846
 0.54507503
 0.54506489
 0.54511045
 0.54522025
 0.54539655
 0.54563388
 0.54591902
 0.54623225
 0.54654860
 0.54683849
 0.54706793
 0.54719910
 0.54719219
 0.54700905
 0.54661808
 0.54599998
 0.54515433
 0.54410708
 0.54291824
 0.54168816
 0.54056078
 0.53972267
 0.53939722
 0.53983420
 0.54129446
 0.54402909
 0.54825243
 0.55410964
 0.56164173
 0.57075258
 0.58118318
 0.59249860
 0.60409318
 0.61521997
 0.62504808
 0.63274462
 0.63756596
 0.63893287
 0.63646773
 0.62999002
 0.61948509
 0.60506713
 0.58694983
 0.56542783
 0.54086569
 0.51368959
 0.48437793
 0.45344912
 0.42144549
 0.38891371
 0.35638270
 0.32434190
 0.29322392
 0.26339425
 0.23514861
 0.20871525
 0.18425859
 0.16188199
 0.14162969
 0.12349043
 0.10740467
 0.09327519
 0.08097917
 0.07037959
 0.06133572
 0.05371441
 0.04740257
 0.04231978
 0.03842870
 0.03574189
 0.03432488
 0.03429587
 0.03582217
 0.03911332
 0.04441049
 0.05197217
 0.06205725
 0.07490701
 0.09072766
 0.10967339
 0.13182916
 0.15719349
 0.18566276
 0.21702026
 0.25093328
 0.28696048
 0.32456931
 0.36316106
 0.40210035
 0.44074604
 0.47848133
 0.51474106
 0.54903443
 0.58096216
 0.61022785
 0.63664440
 0.66013592
 0.68073522
 0.69857544
 0.71387549
 0.72692015
 0.73803718
 0.74757421
 0.75587719
 0.76327177
 0.77004852
 0.77645331
 0.78268302
 0.78888639
 0.79516823
 0.80159523
 0.80820198
 0.81499681
 0.82196750
 0.82908707
 0.83631918
 0.84362222
 0.85095186
 0.85826259
 0.86550937
 0.87264961
 0.87964502
 0.88646230
 0.89307257
 0.89944962
 0.90556820
 0.91140266
 0.91692610
 0.92210971
 0.92692211
 0.93132879
 0.93529186
 0.93877027
 0.94172018
 0.94409505
 0.94584590
 0.94692224
 0.94727475
 0.94685926
 0.94564101
 0.94359763
 0.94071987
 0.93701060
 0.93248324
 0.92716062
 0.92107425
 0.91426345
 0.90677373
 0.89865477
 0.88995874
 0.88073945
 0.87105197
 0.86095211
 0.85049546
 0.83973655
 0.82872894
 0.81752612
 0.80618251
 0.79475386
 0.78329665
 0.77186721
 0.76052092
 0.74931208
 0.73829387
 0.72751802
 0.71703401
 0.70688798
 0.69712209
 0.68777401
 0.67887627
 0.67045500
 0.66252808
 0.65510336
 0.64817819
 0.64174053
 0.63577145
 0.63024754
 0.62514246
 0.62042761
 0.61607282
 0.61204775
 0.60832375
 0.60487559
 0.60168226
 0.59872700
 0.59599680
 0.59348201
 0.59117564
 0.58907208
 0.58716535
 0.58544786
 0.58391018
 0.58254183
 0.58133234
 0.58027200
 0.57935203
 0.57856433
 0.57790116
 0.57735503
 0.57691854
 0.57658375
 0.57634136
 0.57618025
 0.57608818
 0.57605333
 0.57606583
 0.57611817
 0.57620453
 0.57631955
 0.57645779
 0.57661402
 0.57678399
 0.57696474
 0.57715420
 0.57735045
 0.57755108
 0.57775279
 0.57795124
 0.57814065
 0.57831348
 0.57846037
 0.57857091
 0.57863513
 0.57864502
 0.57859545
 0.57848397
 0.57830993
 0.57807370
 0.57777646
 0.57742039
 0.57700874
 0.57654527
 0.57603358
 0.57547680
 0.57487789
 0.57424020
 0.57356763
 0.57286442
 0.57213490
 0.57138352
 0.57061527
 0.56983612
 0.56905283
 0.56827209
 0.56749942
 0.56673850
 0.56599134
 0.56525899
 0.56454219
 0.56384153
 0.56315743
 0.56249056
 0.56184240
 0.56121605
 0.56061622
 0.56004883
 0.55952023
 0.55903709
 0.55860693
 0.55823888
 0.55794345
 0.55773123
 0.55761087
 0.55758759
 0.55766264
 0.55783322
 0.55809215
 0.55842692
 0.55881894
 0.55924377
 0.55967237
 0.56007281
 0.56041167
 0.56065509
 0.56076978
 0.56072450
 0.56049207
 0.56005160
 0.55939011
 0.55850314
 0.55739449
 0.55607587
 0.55456679
 0.55289472
 0.55109471
 0.54920836
 0.54728211
 0.54536578
 0.54351111
 0.54177010
 0.54019266
 0.53882363
 0.53769995
 0.53684853
 0.53628483
 0.53601175
 0.53601827
 0.53627847
 0.53675174
 0.53738499
 0.53811687
 0.53888251
 0.53961733
 0.54025947
 0.54075160
 0.54104314
 0.54109380
 0.54087827
 0.54039136
 0.53965316
 0.53871393
 0.53765883
 0.53661213
 0.53573948
 0.53524669
 0.53537345
 0.53638141
 0.53853664
 0.54208656
 0.54723148
 0.55409175
 0.56267348
 0.57283790
 0.58428088
 0.59652915
 0.60895983
 0.62084688
 0.63143391
 0.64002274
 0.64605561
 0.64916410
 0.64916839
 0.64603329
 0.63980463
 0.63055120
 0.61832759
 0.60316267
 0.58507113
 0.56408147
 0.54027186
 0.51380480
 0.48495250
 0.45410739
 0.42177467
 0.38854720
 0.35506607
 0.32197271
 0.28986017
 0.25923131
 0.23047034
 0.20383139
 0.17944400
 0.15733196
 0.13743983
 0.11966052
 0.10385876
 0.08988750
 0.07759812
 0.06684751
 0.05750527
 0.04946202
 0.04263804
 0.03699087
 0.03252134
 0.02927834
 0.02736233
 0.02692679
 0.02817590
 0.03135713
 0.03674842
 0.04464136
 0.05532202
 0.06905065
 0.08604093
 0.10643915
 0.13030437
 0.15759120
 0.18813711
 0.22165654
 0.25774341
 0.29588338
 0.33547502
 0.37585808
 0.41634592
 0.45625901
 0.49495680
 0.53186594
 0.56650282
 0.59848959
 0.62756393
 0.65358345
 0.67652535
 0.69648056
 0.71364150
 0.72828338
 0.74074080
 0.75138271
 0.76058782
 0.76872245
 0.77612189
 0.78307666
 0.78982443
 0.79654739
 0.80337428
 0.81038522
 0.81761814
 0.82507630
 0.83273672
 0.84055874
 0.84849167
 0.85648049
 0.86446962
 0.87240515
 0.88023639
 0.88791693
 0.89540496
 0.90266249
 0.90965347
 0.91634178
 0.92268972
 0.92865749
 0.93420322
 0.93928293
 0.94385068
 0.94785922
 0.95126152
 0.95401269
 0.95607151
 0.95740091
 0.95796780
 0.95774294
 0.95670170
 0.95482560
 0.95210390
 0.94853444
 0.94412318
 0.93888281
 0.93283134
 0.92599123
 0.91838921
 0.91005622
 0.90102728
 0.89134132
 0.88104122
 0.87017441
 0.85879392
 0.84695952
 0.83473810
 0.82220331
 0.80943476
 0.79651713
 0.78353878
 0.77058945
 0.75775690
 0.74512341
 0.73276312
 0.72074080
 0.70911178
 0.69792236
 0.68720994
 0.67700309
 0.66732188
 0.65817890
 0.64958069
 0.64152891
 0.63402097
 0.62705006
 0.62060527
 0.61467198
 0.60923269
 0.60426750
 0.59975434
 0.59566901
 0.59198580
 0.58867859
 0.58572186
 0.58309081
 0.58076051
 0.57870466
 0.57689519
 0.57530305
 0.57389988
 0.57265946
 0.57155851
 0.57057679
 0.56969725
 0.56890669
 0.56819662
 0.56756359
 0.56700809
 0.56653266
 0.56613978
 0.56583081
 0.56560545
 0.56546155
 0.56539484
 0.56539876
 0.56546518
 0.56558564
 0.56575296
 0.56596207
 0.56620973
 0.56649334
 0.56680990
 0.56715604
 0.56752870
 0.56792563
 0.56834499
 0.56878388
 0.56923698
 0.56969617
 0.57015106
 0.57058961
 0.57099841
 0.57136297
 0.57166856
 0.57190178
 0.57205197
 0.57211208
 0.57207875
 0.57195194
 0.57173450
 0.57143188
 0.57105143
 0.57060126
 0.57008859
 0.56951841
 0.56889315
 0.56821371
 0.56748118
 0.56669838
 0.56587061
 0.56500565
 0.56411373
 0.56320749
 0.56230173
 0.56141203
 0.56055236
 0.55973233
 0.55895555
 0.55821938
 0.55751604
 0.55683419
 0.55616043
 0.55548087
 0.55478292
 0.55405724
 0.55329934
 0.55250994
 0.55169408
 0.55085949
 0.55001530
 0.54917156
 0.54833887
 0.54752767
 0.54674698
 0.54600359
 0.54530234
 0.54464724
 0.54404225
 0.54349110
 0.54299618
 0.54255761
 0.54217298
 0.54183803
 0.54154756
 0.54129611
 0.54107792
 0.54088660
 0.54071502
 0.54055589
 0.54040271
 0.54025004
 0.54009295
 0.53992615
 0.53974373
 0.53954003
 0.53931121
 0.53905692
 0.53878139
 0.53849380
 0.53820840
 0.53794471
 0.53772751
 0.53758579
 0.53755011
 0.53764920
 0.53790637
 0.53833647
 0.53894314
 0.53971626
 0.54062983
 0.54164098
 0.54269080
 0.54370732
 0.54461039
 0.54531785
 0.54575265
 0.54585085
 0.54557071
 0.54490266
 0.54387883
 0.54258065
 0.54114340
 0.53975714
 0.53866370
 0.53814883
 0.53852755
 0.54012117
 0.54322545
 0.54807165
 0.55478428
 0.56334043
 0.57353624
 0.58496656
 0.59702508
 0.60893299
 0.61980153
 0.62872618
 0.63489669
 0.63769367
 0.63674239
 0.63191155
 0.62326953
 0.61102362
 0.59546354
 0.57691962
 0.55573718
 0.53226445
 0.50684957
 0.47984116
 0.45158814
 0.42243620
 0.39272048
 0.36275621
 0.33283127
 0.30320481
 0.27411314
 0.24578009
 0.21842602
 0.19227064
 0.16752766
 0.14439319
 0.12303154
 0.10356258
 0.08605370
 0.07051766
 0.05691695
 0.04517429
 0.03518856
 0.02685426
 0.02008221
 0.01481909
 0.01106397
 0.00888018
 0.00840069
 0.00982526
 0.01340880
 0.01944174
 0.02822443
 0.04003858
 0.05511827
 0.07362304
 0.09561547
 0.12104522
 0.14974133
 0.18141335
 0.21566086
 0.25199034
 0.28983745
 0.32859291
 0.36763031
 0.40633359
 0.44412175
 0.48046866
 0.51491759
 0.54709193
 0.57670338
 0.60355797
 0.62755920
 0.64870712
 0.66709283
 0.68288823
 0.69633175
 0.70771102
 0.71734347
 0.72555658
 0.73266948
 0.73897822
 0.74474568
 0.75019611
 0.75551306
 0.76083929
 0.76627821
 0.77189668
 0.77772948
 0.78378534
 0.79005341
 0.79650920
 0.80311895
 0.80984295
 0.81663820
 0.82346092
 0.83026834
 0.83701946
 0.84367496
 0.85019694
 0.85654943
 0.86269976
 0.86861967
 0.87428516
 0.87967490
 0.88476814
 0.88954316
 0.89397656
 0.89804301
 0.90171484
 0.90496124
 0.90774735
 0.91003403
 0.91177893
 0.91293821
 0.91346838
 0.91332759
 0.91247715
 0.91088350
 0.90852067
 0.90537235
 0.90143278
 0.89670640
 0.89120672
 0.88495501
 0.87797917
 0.87031268
 0.86199353
 0.85306345
 0.84356759
 0.83355518
 0.82308075
 0.81220538
 0.80099694
 0.78952907
 0.77787929
 0.76612691
 0.75435149
 0.74263148
 0.73104255
 0.71965551
 0.70853430
 0.69773526
 0.68730797
 0.67729668
 0.66774124
 0.65867670
 0.65013194
 0.64212818
 0.63467783
 0.62778394
 0.62144001
 0.61563030
 0.61033059
 0.60550977
 0.60113214
 0.59715992
 0.59355527
 0.59028176
 0.58730549
 0.58459636
 0.58212920
 0.57988415
 0.57784576
 0.57600164
 0.57434114
 0.57285489
 0.57153499
 0.57037539
 0.56937197
 0.56852154
 0.56782033
 0.56726272
 0.56684106
 0.56654596
 0.56636648
 0.56628990
 0.56630180
 0.56638689
 0.56653068
 0.56672097
 0.56694850
 0.56720632
 0.56748860
 0.56778963
 0.56810351
 0.56842431
 0.56874607
 0.56906273
 0.56936809
 0.56965613
 0.56992149
 0.57015996
 0.57036847
 0.57054459
 0.57068591
 0.57079016
 0.57085622
 0.57088534
 0.57088123
 0.57084879
 0.57079215
 0.57071302
 0.57061049
 0.57048166
 0.57032259
 0.57012855
 0.56989412
 0.56961362
 0.56928222
 0.56889736
 0.56845949
 0.56797176
 0.56743903
 0.56686700
 0.56626192
 0.56563039
 0.56497859
 0.56431092
 0.56362897
 0.56293170
 0.56221684
 0.56148275
 0.56072947
 0.55995897
 0.55917464
 0.55838096
 0.55758343
 0.55678859
 0.55600352
 0.55523500
 0.55448870
 0.55376895
 0.55307930
 0.55242292
 0.55180231
 0.55121845
 0.55066985
 0.55015240
 0.54966021
 0.54918682
 0.54872636
 0.54827407
 0.54782655
 0.54738190
 0.54693977
 0.54650128
 0.54606837
 0.54564303
 0.54522648
 0.54481926
 0.54442177
 0.54403488
 0.54365968
 0.54329685
 0.54294627
 0.54260773
 0.54228202
 0.54197160
 0.54168003
 0.54141067
 0.54116536
 0.54094414
 0.54074618
 0.54057079
 0.54041747
 0.54028487
 0.54016956
 0.54006579
 0.53996668
 0.53986588
 0.53975898
 0.53964388
 0.53952077
 0.53939190
 0.53926186
 0.53913780
 0.53902890
 0.53894500
 0.53889492
 0.53888541
 0.53892095
 0.53900377
 0.53913317
 0.53930407
 0.53950533
 0.53971910
 0.53992170
 0.54008572
 0.54018263
 0.54018557
 0.54007264
 0.53983124
 0.53946329
 0.53899110
 0.53846284
 0.53795731
 0.53758753
 0.53750253
 0.53788653
 0.53895355
 0.54093587
 0.54406562
 0.54854946
 0.55453785
 0.56209072
 0.57114276
 0.58147289
 0.59268476
 0.60420708
 0.61532228
 0.62522837
 0.63312844
 0.63832812
 0.64031166
 0.63877416
 0.63360815
 0.62486228
 0.61269338
 0.59732588
 0.57902315
 0.55807095
 0.53477033
 0.50943548
 0.48239232
 0.45397428
 0.42451506
 0.39433963
 0.36375691
 0.33305686
 0.30251357
 0.27239314
 0.24296257
 0.21449570
 0.18727248
 0.16157008
 0.13764657
 0.11572110
 0.09595597
 0.07844503
 0.06320969
 0.05020212
 0.03931476
 0.03039507
 0.02326453
 0.01774028
 0.01365759
 0.01089166
 0.00937584
 0.00911389
 0.01018450
 0.01273789
 0.01698560
 0.02318419
 0.03161387
 0.04255310
 0.05625188
 0.07290677
 0.09264039
 0.11548638
 0.14137968
 0.17015193
 0.20153246
 0.23515527
 0.27057217
 0.30727115
 0.34469893
 0.38228552
 0.41946872
 0.45571635
 0.49054531
 0.52353699
 0.55434881
 0.58272204
 0.60848592
 0.63155894
 0.65194741
 0.66974094
 0.68510379
 0.69826124
 0.70948205
 0.71905894
 0.72728966
 0.73446095
 0.74083618
 0.74664684
 0.75208746
 0.75731402
 0.76244569
 0.76756883
 0.77274180
 0.77799923
 0.78335583
 0.78881004
 0.79434822
 0.79994926
 0.80558881
 0.81124246
 0.81688768
 0.82250505
 0.82807952
 0.83360156
 0.83906749
 0.84447817
 0.84983630
 0.85514329
 0.86039696
 0.86559067
 0.87071342
 0.87574980
 0.88067974
 0.88547808
 0.89011491
 0.89455678
 0.89876826
 0.90271300
 0.90635410
 0.90965433
 0.91257667
 0.91508517
 0.91714547
 0.91872449
 0.91978953
 0.92030753
 0.92024520
 0.91957037
 0.91825400
 0.91627197
 0.91360619
 0.91024497
 0.90618336
 0.90142372
 0.89597631
 0.88985942
 0.88309878
 0.87572672
 0.86778194
 0.85930997
 0.85036369
 0.84100312
 0.83129366
 0.82130358
 0.81110139
 0.80075361
 0.79032258
 0.77986410
 0.76942540
 0.75904437
 0.74875087
 0.73856998
 0.72852591
 0.71864488
 0.70895619
 0.69949151
 0.69028330
 0.68136319
 0.67276042
 0.66450009
 0.65660151
 0.64907711
 0.64193287
 0.63517019
 0.62878805
 0.62278422
 0.61715535
 0.61189630
 0.60699998
 0.60245783
 0.59826045
 0.59439745
 0.59085647
 0.58762223
 0.58467659
 0.58199962
 0.57957112
 0.57737167
 0.57538327
 0.57358964
 0.57197695
 0.57053470
 0.56925640
 0.56813933
 0.56718310
 0.56638766
 0.56575150
 0.56527080
 0.56493907
 0.56474684
 0.56468142
 0.56472694
 0.56486524
 0.56507766
 0.56534687
 0.56565812
 0.56599948
 0.56636178
 0.56673839
 0.56712526
 0.56752072
 0.56792490
 0.56833856
 0.56876181
 0.56919354
 0.56963171
 0.57007391
 0.57051731
 0.57095768
 0.57138852
 0.57180096
 0.57218479
 0.57252993
 0.57282753
 0.57307044
 0.57325325
 0.57337242
 0.57342633
 0.57341506
 0.57333947
 0.57320023
 0.57299732
 0.57273044
 0.57239957
 0.57200524
 0.57154813
 0.57102849
 0.57044602
 0.56980070
 0.56909423
 0.56833137
 0.56752019
 0.56667124
 0.56579590
 0.56490507
 0.56400865
 0.56311541
 0.56223268
 0.56136526
 0.56051460
 0.55967868
 0.55885319
 0.55803332
 0.55721539
 0.55639791
 0.55558205
 0.55477199
 0.55397503
 0.55320092
 0.55246026
 0.55176215
 0.55111188
 0.55050983
 0.54995201
 0.54943171
 0.54894109
 0.54847232
 0.54801829
 0.54757320
 0.54713321
 0.54669692
 0.54626528
 0.54584089
 0.54542716
 0.54502763
 0.54464564
 0.54428389
 0.54394376
 0.54362434
 0.54332214
 0.54303185
 0.54274781
 0.54246565
 0.54218303
 0.54189965
 0.54161659
 0.54133584
 0.54106022
 0.54079324
 0.54053839
 0.54029819
 0.54007353
 0.53986380
 0.53966758
 0.53948316
 0.53930868
 0.53914191
 0.53898008
 0.53882023
 0.53866050
 0.53850153
 0.53834706
 0.53820317
 0.53807687
 0.53797509
 0.53790425
 0.53787003
 0.53787693
 0.53792737
 0.53802126
 0.53815625
 0.53832848
 0.53853274
 0.53876147
 0.53900297
 0.53923974
 0.53944782
 0.53959725
 0.53965344
 0.53957925
 0.53933761
 0.53889491
 0.53822611
 0.53732159
 0.53619533
 0.53489319
 0.53350026
 0.53214638
 0.53100913
 0.53031295
 0.53032241
 0.53132786
 0.53362284
 0.53747436
 0.54308773
 0.55056883
 0.55988675
 0.57084112
 0.58304043
 0.59589952
 0.60866515
 0.62047580
 0.63045329
 0.63781038
 0.64194548
 0.64249542
 0.63933468
 0.63253244
 0.62229136
 0.60888878
 0.59263107
 0.57382471
 0.55276277
 0.52972323
 0.50497342
 0.47877579
 0.45139142
 0.42308030
 0.39409890
 0.36469674
 0.33511473
 0.30558726
 0.27634844
 0.24764019
 0.21971833
 0.19285245
 0.16731686
 0.14337316
 0.12124884
 0.10111809
 0.08308944
 0.06720128
 0.05342393
 0.04166642
 0.03178722
 0.02360973
 0.01694296
 0.01160630
 0.00745563
 0.00440709
 0.00245582
 0.00168806
 0.00228529
 0.00451961
 0.00873956
 0.01534593
 0.02475872
 0.03737797
 0.05354294
 0.07349410
 0.09734168
 0.12504337
 0.15639369
 0.19102643
 0.22843044
 0.26797720
 0.30895672
 0.35061705
 0.39220321
 0.43299205
 0.47232119
 0.50961147
 0.54438314
 0.57626682
 0.60501000
 0.63047990
 0.65266282
 0.67165870
 0.68766926
 0.70097935
 0.71193289
 0.72090676
 0.72828547
 0.73443903
 0.73970543
 0.74437810
 0.74869878
 0.75285550
 0.75698542
 0.76118143
 0.76550053
 0.76997233
 0.77460656
 0.77939942
 0.78433926
 0.78941143
 0.79460177
 0.79989817
 0.80529055
 0.81077007
 0.81632875
 0.82195968
 0.82765730
 0.83341710
 0.83923453
 0.84510338
 0.85101418
 0.85695317
 0.86290156
 0.86883514
 0.87472395
 0.88053232
 0.88621932
 0.89173950
 0.89704358
 0.90207866
 0.90678806
 0.91111158
 0.91498688
 0.91835194
 0.92114816
 0.92332279
 0.92483010
 0.92563117
 0.92569335
 0.92498984
 0.92349970
 0.92120751
 0.91810232
 0.91417668
 0.90942648
 0.90385208
 0.89745996
 0.89026378
 0.88228495
 0.87355281
 0.86410548
 0.85399126
 0.84327011
 0.83201432
 0.82030764
 0.80824329
 0.79592173
 0.78344854
 0.77093206
 0.75848000
 0.74619531
 0.73417208
 0.72249263
 0.71122595
 0.70042725
 0.69013785
 0.68038541
 0.67118473
 0.66253963
 0.65444595
 0.64689480
 0.63987494
 0.63337389
 0.62737820
 0.62187337
 0.61684370
 0.61227197
 0.60813891
 0.60442246
 0.60109709
 0.59813389
 0.59550195
 0.59317042
 0.59111008
 0.58929406
 0.58769801
 0.58630032
 0.58508248
 0.58402926
 0.58312833
 0.58236960
 0.58174449
 0.58124540
 0.58086529
 0.58059708
 0.58043244
 0.58036076
 0.58036883
 0.58044196
 0.58056581
 0.58072788
 0.58091789
 0.58112699
 0.58134682
 0.58156910
 0.58178593
 0.58199017
 0.58217552
 0.58233572
 0.58246362
 0.58255078
 0.58258819
 0.58256764
 0.58248289
 0.58233006
 0.58210738
 0.58181482
 0.58145410
 0.58102881
 0.58054441
 0.58000783
 0.57942687
 0.57880983
 0.57816511
 0.57750066
 0.57682304
 0.57613621
 0.57544057
 0.57473280
 0.57400657
 0.57325399
 0.57246692
 0.57163808
 0.57076193
 0.56983599
 0.56886232
 0.56784856
 0.56680788
 0.56575767
 0.56471749
 0.56370706
 0.56274456
 0.56184528
 0.56102036
 0.56027565
 0.55961109
 0.55902110
 0.55849596
 0.55802349
 0.55759029
 0.55718238
 0.55678589
 0.55638803
 0.55597835
 0.55554976
 0.55509889
 0.55462592
 0.55413393
 0.55362838
 0.55311667
 0.55260744
 0.55210914
 0.55162824
 0.55116798
 0.55072870
 0.55030930
 0.54990861
 0.54952595
 0.54916093
 0.54881325
 0.54848294
 0.54817103
 0.54788001
 0.54761345
 0.54737483
 0.54716610
 0.54698689
 0.54683481
 0.54670631
 0.54659721
 0.54650263
 0.54641697
 0.54633440
 0.54624980
 0.54615943
 0.54606102
 0.54595350
 0.54583679
 0.54571201
 0.54558191
 0.54545095
 0.54532444
 0.54520723
 0.54510276
 0.54501297
 0.54493900
 0.54488190
 0.54484277
 0.54482246
 0.54482141
 0.54483998
 0.54487886
 0.54493877
 0.54501901
 0.54511505
 0.54521607
 0.54530345
 0.54535074
 0.54532470
 0.54518693
 0.54489660
 0.54441508
 0.54371281
 0.54277804
 0.54162623
 0.54030864
 0.53891938
 0.53760043
 0.53654441
 0.53599332
 0.53623113
 0.53756790
 0.54031500
 0.54475240
 0.55109019
 0.55942716
 0.56971010
 0.58169924
 0.59494730
 0.60880099
 0.62243345
 0.63491250
 0.64530020
 0.65276513
 0.65667694
 0.65665480
 0.65256073
 0.64445201
 0.63251790
 0.61702208
 0.59826138
 0.57654319
 0.55217884
 0.52548741
 0.49680354
 0.46648347
 0.43490592
 0.40246681
 0.36956906
 0.33661091
 0.30397650
 0.27203102
 0.24111932
 0.21156486
 0.18366508
 0.15768129
 0.13382426
 0.11223970
 0.09299861
 0.07609563
 0.06145561
 0.04894661
 0.03839703
 0.02961528
 0.02241142
 0.01661998
 0.01212320
 0.00887228
 0.00690405
 0.00634986
 0.00743501
 0.01046800
 0.01582032
 0.02389764
 0.03510400
 0.04980151
 0.06826977
 0.09067032
 0.11702054
 0.14717966
 0.18084733
 0.21757389
 0.25678093
 0.29779029
 0.33985933
 0.38221894
 0.42411073
 0.46481977
 0.50370139
 0.54020208
 0.57387517
 0.60439184
 0.63154714
 0.65526098
 0.67557425
 0.69264010
 0.70671000
 0.71811476
 0.72724087
 0.73450430
 0.74032387
 0.74509730
 0.74918216
 0.75288297
 0.75644437
 0.76004962
 0.76382341
 0.76783819
 0.77212361
 0.77667765
 0.78147802
 0.78649222
 0.79168494
 0.79702286
 0.80247688
 0.80802300
 0.81364216
 0.81931913
 0.82504067
 0.83079378
 0.83656492
 0.84234007
 0.84810490
 0.85384460
 0.85954304
 0.86518166
 0.87073854
 0.87618833
 0.88150251
 0.88664961
 0.89159483
 0.89629924
 0.90071900
 0.90480500
 0.90850281
 0.91175269
 0.91448984
 0.91664571
 0.91815038
 0.91893555
 0.91893728
 0.91809794
 0.91636749
 0.91370475
 0.91007902
 0.90547229
 0.89988136
 0.89331890
 0.88581327
 0.87740767
 0.86815920
 0.85813814
 0.84742663
 0.83611658
 0.82430686
 0.81210078
 0.79960443
 0.78692585
 0.77417406
 0.76145710
 0.74887933
 0.73653869
 0.72452456
 0.71291652
 0.70178354
 0.69118294
 0.68115919
 0.67174280
 0.66295038
 0.65478617
 0.64724468
 0.64031315
 0.63397331
 0.62820261
 0.62297533
 0.61826379
 0.61403900
 0.61027068
 0.60692687
 0.60397415
 0.60137864
 0.59910737
 0.59712900
 0.59541374
 0.59393267
 0.59265765
 0.59156185
 0.59062089
 0.58981363
 0.58912241
 0.58853286
 0.58803369
 0.58761690
 0.58727788
 0.58701493
 0.58682752
 0.58671368
 0.58666796
 0.58668072
 0.58673891
 0.58682750
 0.58693072
 0.58703298
 0.58711981
 0.58717912
 0.58720256
 0.58718648
 0.58713175
 0.58704247
 0.58692409
 0.58678171
 0.58661901
 0.58643737
 0.58623517
 0.58600726
 0.58574510
 0.58543789
 0.58507488
 0.58464775
 0.58415207
 0.58358751
 0.58295724
 0.58226732
 0.58152631
 0.58074473
 0.57993403
 0.57910496
 0.57826602
 0.57742278
 0.57657838
 0.57573418
 0.57489016
 0.57404488
 0.57319561
 0.57233920
 0.57147320
 0.57059687
 0.56971130
 0.56881906
 0.56792392
 0.56703124
 0.56614881
 0.56528696
 0.56445753
 0.56367169
 0.56293781
 0.56226034
 0.56163989
 0.56107386
 0.56055669
 0.56007992
 0.55963263
 0.55920310
 0.55878116
 0.55836031
 0.55793863
 0.55751816
 0.55710365
 0.55670112
 0.55631685
 0.55595639
 0.55562348
 0.55531905
 0.55504099
 0.55478468
 0.55454441
 0.55431462
 0.55409065
 0.55386877
 0.55364601
 0.55342040
 0.55319150
 0.55296076
 0.55273112
 0.55250611
 0.55228887
 0.55208168
 0.55188589
 0.55170201
 0.55152964
 0.55136712
 0.55121140
 0.55105886
 0.55090690
 0.55075557
 0.55060815
 0.55047057
 0.55035022
 0.55025517
 0.55019381
 0.55017421
 0.55020275
 0.55028219
 0.55041016
 0.55057864
 0.55077398
 0.55097725
 0.55116408
 0.55130440
 0.55136263
 0.55129926
 0.55107370
 0.55064816
 0.54999203
 0.54908687
 0.54793266
 0.54655544
 0.54501580
 0.54341640
 0.54190697
 0.54068538
 0.53999413
 0.54011146
 0.54133628
 0.54396557
 0.54826423
 0.55442842
 0.56254545
 0.57255442
 0.58421313
 0.59707807
 0.61050547
 0.62368176
 0.63568890
 0.64560098
 0.65259343
 0.65603331
 0.65552228
 0.65088630
 0.64212980
 0.62938107
 0.61284804
 0.59279089
 0.56950939
 0.54333975
 0.51465551
 0.48386786
 0.45142256
 0.41779169
 0.38346026
 0.34891057
 0.31460827
 0.28099316
 0.24847447
 0.21742697
 0.18818421
 0.16102709
 0.13617023
 0.11375113
 0.09382652
 0.07637673
 0.06131662
 0.04851115
 0.03779502
 0.02899639
 0.02196325
 0.01658931
 0.01283602
 0.01074804
 0.01046057
 0.01219761
 0.01626009
 0.02300362
 0.03280650
 0.04603078
 0.06298079
 0.08386453
 0.10876214
 0.13760407
 0.17016049
 0.20604282
 0.24471772
 0.28553302
 0.32775267
 0.37059668
 0.41328088
 0.45505296
 0.49522254
 0.53318546
 0.56844262
 0.60061399
 0.62944772
 0.65482427
 0.67675505
 0.69537433
 0.71092376
 0.72372953
 0.73417444
 0.74266808
 0.74961909
 0.75541306
 0.76039702
 0.76486989
 0.76907748
 0.77321122
 0.77741039
 0.78176757
 0.78633638
 0.79114039
 0.79618132
 0.80144592
 0.80691188
 0.81255312
 0.81834433
 0.82426380
 0.83029400
 0.83641982
 0.84262563
 0.84889260
 0.85519738
 0.86151196
 0.86780422
 0.87403873
 0.88017814
 0.88618482
 0.89202271
 0.89765830
 0.90306053
 0.90819959
 0.91304534
 0.91756588
 0.92172649
 0.92548849
 0.92880783
 0.93163365
 0.93390747
 0.93556375
 0.93653192
 0.93673902
 0.93611247
 0.93458252
 0.93208517
 0.92856586
 0.92398379
 0.91831618
 0.91156139
 0.90374069
 0.89489832
 0.88510057
 0.87443403
 0.86300306
 0.85092649
 0.83833377
 0.82536105
 0.81214772
 0.79883301
 0.78555241
 0.77243323
 0.75959010
 0.74712123
 0.73510659
 0.72360767
 0.71266819
 0.70231497
 0.69255885
 0.68339632
 0.67481247
 0.66678483
 0.65928733
 0.65229306
 0.64577568
 0.63971004
 0.63407312
 0.62884540
 0.62401182
 0.61956142
 0.61548565
 0.61177612
 0.60842285
 0.60541329
 0.60273187
 0.60035980
 0.59827494
 0.59645236
 0.59486550
 0.59348803
 0.59229553
 0.59126642
 0.59038190
 0.58962559
 0.58898360
 0.58844503
 0.58800211
 0.58764961
 0.58738372
 0.58720099
 0.58709775
 0.58706999
 0.58711315
 0.58722100
 0.58738408
 0.58758852
 0.58781668
 0.58804961
 0.58827010
 0.58846471
 0.58862393
 0.58874125
 0.58881209
 0.58883337
 0.58880347
 0.58872165
 0.58858705
 0.58839769
 0.58815037
 0.58784179
 0.58747007
 0.58703560
 0.58654118
 0.58599200
 0.58539579
 0.58476289
 0.58410578
 0.58343748
 0.58276933
 0.58210917
 0.58146053
 0.58082285
 0.58019206
 0.57956098
 0.57891979
 0.57825716
 0.57756226
 0.57682742
 0.57604995
 0.57523264
 0.57438271
 0.57351026
 0.57262686
 0.57174441
 0.57087430
 0.57002656
 0.56920920
 0.56842784
 0.56768593
 0.56698542
 0.56632744
 0.56571229
 0.56513891
 0.56460427
 0.56410370
 0.56363197
 0.56318475
 0.56275924
 0.56235401
 0.56196835
 0.56160181
 0.56125430
 0.56092627
 0.56061840
 0.56033089
 0.56006309
 0.55981371
 0.55958136
 0.55936472
 0.55916196
 0.55896996
 0.55878432
 0.55860028
 0.55841428
 0.55822513
 0.55803432
 0.55784508
 0.55766090
 0.55748436
 0.55731668
 0.55715759
 0.55700505
 0.55685477
 0.55670054
 0.55653573
 0.55635535
 0.55615765
 0.55594438
 0.55572001
 0.55549080
 0.55526435
 0.55504953
 0.55485625
 0.55469455
 0.55457323
 0.55449848
 0.55447319
 0.55449676
 0.55456473
 0.55466747
 0.55478809
 0.55490050
 0.55496917
 0.55495091
 0.55479838
 0.55446445
 0.55390725
 0.55309633
 0.55202034
 0.55069597
 0.54917693
 0.54756148
 0.54599757
 0.54468461
 0.54387102
 0.54384629
 0.54492556
 0.54742576
 0.55163347
 0.55776627
 0.56593066
 0.57608024
 0.58797895
 0.60117630
 0.61500323
 0.62859827
 0.64097109
 0.65110128
 0.65805577
 0.66109381
 0.65972772
 0.65372700
 0.64307997
 0.62793975
 0.60857583
 0.58533928
 0.55864118
 0.52894047
 0.49673655
 0.46256202
 0.42697218
 0.39053022
 0.35379088
 0.31728663
 0.28151989
 0.24696037
 0.21404280
 0.18315935
 0.15464409
 0.12875271
 0.10564480
 0.08537579
 0.06790132
 0.05309235
 0.04075866
 0.03067917
 0.02263728
 0.01645774
 0.01204014
 0.00938439
 0.00860460
 0.00993003
 0.01369242
 0.02030030
 0.03020109
 0.04383347
 0.06157453
 0.08368782
 0.11027905
 0.14126488
 0.17635803
 0.21507024
 0.25673279
 0.30053311
 0.34556377
 0.39087834
 0.43554749
 0.47870887
 0.51960686
 0.55762154
 0.59228748
 0.62330336
 0.65053278
 0.67399658
 0.69385686
 0.71039330
 0.72397385
 0.73502259
 0.74398779
 0.75131298
 0.75741290
 0.76265612
 0.76735477
 0.77176106
 0.77606879
 0.78041850
 0.78490451
 0.78958320
 0.79448186
 0.79960737
 0.80495339
 0.81050547
 0.81624410
 0.82214663
 0.82818892
 0.83434698
 0.84059780
 0.84691897
 0.85328719
 0.85967651
 0.86605753
 0.87239755
 0.87866126
 0.88481107
 0.89080671
 0.89660472
 0.90215867
 0.90742027
 0.91234055
 0.91687036
 0.92096006
 0.92455916
 0.92761667
 0.93008219
 0.93190732
 0.93304662
 0.93345798
 0.93310293
 0.93194727
 0.92996217
 0.92712524
 0.92342129
 0.91884289
 0.91339106
 0.90707641
 0.89992035
 0.89195586
 0.88322735
 0.87378931
 0.86370464
 0.85304350
 0.84188250
 0.83030405
 0.81839512
 0.80624544
 0.79394594
 0.78158784
 0.76926209
 0.75705834
 0.74506278
 0.73335513
 0.72200561
 0.71107279
 0.70060260
 0.69062838
 0.68117154
 0.67224265
 0.66384306
 0.65596724
 0.64860568
 0.64174736
 0.63538100
 0.62949484
 0.62407595
 0.61911011
 0.61458252
 0.61047855
 0.60678358
 0.60348212
 0.60055673
 0.59798794
 0.59575501
 0.59383672
 0.59221153
 0.59085704
 0.58974956
 0.58886414
 0.58817536
 0.58765798
 0.58728695
 0.58703681
 0.58688122
 0.58679348
 0.58674828
 0.58672383
 0.58670336
 0.58667562
 0.58663447
 0.58657832
 0.58650930
 0.58643195
 0.58635146
 0.58627172
 0.58619409
 0.58611724
 0.58603800
 0.58595233
 0.58585592
 0.58574438
 0.58561362
 0.58546068
 0.58528465
 0.58508709
 0.58487144
 0.58464174
 0.58440140
 0.58415278
 0.58389798
 0.58364014
 0.58338423
 0.58313701
 0.58290639
 0.58270089
 0.58252915
 0.58239930
 0.58231738
 0.58228538
 0.58229968
 0.58235111
 0.58242671
 0.58251187
 0.58259171
 0.58265103
 0.58267395
 0.58264383
 0.58254390
 0.58235798
 0.58207061
 0.58166656
 0.58113020
 0.58044561
 0.57959792
 0.57857536
 0.57737131
 0.57598604
 0.57442789
 0.57271423
 0.57087203
 0.56893717
 0.56695170
 0.56495952
 0.56300195
 0.56111482
 0.55932806
 0.55766650
 0.55615098
 0.55479892
 0.55362449
 0.55263878
 0.55184957
 0.55126055
 0.55086984
 0.55066792
 0.55063620
 0.55074700
 0.55096583
 0.55125491
 0.55157666
 0.55189634
 0.55218411
 0.55241671
 0.55257865
 0.55266234
 0.55266707
 0.55259727
 0.55246083
 0.55226817
 0.55203183
 0.55176577
 0.55148426
 0.55120036
 0.55092481
 0.55066584
 0.55042956
 0.55022079
 0.55004332
 0.54989980
 0.54979141
 0.54971821
 0.54967996
 0.54967690
 0.54970976
 0.54977892
 0.54988348
 0.55002057
 0.55018495
 0.55036840
 0.55055872
 0.55073840
 0.55088365
 0.55096447
 0.55094617
 0.55079208
 0.55046713
 0.54994240
 0.54920106
 0.54824618
 0.54710949
 0.54585985
 0.54460945
 0.54351649
 0.54278373
 0.54265257
 0.54339200
 0.54528120
 0.54858488
 0.55352167
 0.56022753
 0.56871770
 0.57885213
 0.59031042
 0.60258305
 0.61498644
 0.62670853
 0.63688605
 0.64470220
 0.64947927
 0.65073709
 0.64820269
 0.64178032
 0.63150527
 0.61750253
 0.59995976
 0.57911457
 0.55525184
 0.52870634
 0.49986573
 0.46916944
 0.43710017
 0.40416749
 0.37088590
 0.33775198
 0.30522515
 0.27371479
 0.24357344
 0.21509367
 0.18850606
 0.16397699
 0.14160756
 0.12143567
 0.10344251
 0.08756267
 0.07369610
 0.06172052
 0.05150448
 0.04292189
 0.03586749
 0.03027128
 0.02610999
 0.02341495
 0.02227597
 0.02284083
 0.02530929
 0.02992095
 0.03693774
 0.04662303
 0.05921957
 0.07492809
 0.09388788
 0.11615970
 0.14171105
 0.17040470
 0.20199241
 0.23611592
 0.27231682
 0.31005543
 0.34873655
 0.38773933
 0.42644801
 0.46428078
 0.50071366
 0.53529777
 0.56767006
 0.59755857
 0.62478400
 0.64925862
 0.67098298
 0.69004005
 0.70658631
 0.72083945
 0.73306368
 0.74355353
 0.75261712
 0.76055964
 0.76766858
 0.77420206
 0.78038159
 0.78638870
 0.79236490
 0.79841388
 0.80460530
 0.81097966
 0.81755390
 0.82432721
 0.83128625
 0.83840901
 0.84566720
 0.85302800
 0.86045572
 0.86791355
 0.87536453
 0.88277177
 0.89009788
 0.89730448
 0.90435196
 0.91119954
 0.91780509
 0.92412460
 0.93011180
 0.93571875
 0.94089753
 0.94560251
 0.94979191
 0.95342828
 0.95647775
 0.95890891
 0.96069225
 0.96180018
 0.96220738
 0.96189077
 0.96082921
 0.95900374
 0.95639876
 0.95300393
 0.94881597
 0.94383928
 0.93808580
 0.93157453
 0.92433143
 0.91638960
 0.90778962
 0.89857948
 0.88881399
 0.87855365
 0.86786334
 0.85681111
 0.84546719
 0.83390296
 0.82218956
 0.81039649
 0.79859045
 0.78683462
 0.77518771
 0.76370275
 0.75242595
 0.74139639
 0.73064718
 0.72020730
 0.71010325
 0.70036003
 0.69100134
 0.68204951
 0.67352530
 0.66544776
 0.65783373
 0.65069672
 0.64404536
 0.63788186
 0.63220116
 0.62699099
 0.62223271
 0.61790216
 0.61397047
 0.61040509
 0.60717126
 0.60423410
 0.60156067
 0.59912115
 0.59688946
 0.59484341
 0.59296512
 0.59124115
 0.58966207
 0.58822111
 0.58691245
 0.58572981
 0.58466626
 0.58371488
 0.58286961
 0.58212557
 0.58147848
 0.58092365
 0.58045510
 0.58006531
 0.57974547
 0.57948600
 0.57927729
 0.57911065
 0.57897949
 0.57888048
 0.57881420
 0.57878458
 0.57879747
 0.57885897
 0.57897411
 0.57914603
 0.57937547
 0.57966028
 0.57999489
 0.58037008
 0.58077349
 0.58119102
 0.58160809
 0.58201028
 0.58238333
 0.58271300
 0.58298570
 0.58318975
 0.58331660
 0.58336142
 0.58332295
 0.58320323
 0.58300750
 0.58274440
 0.58242548
 0.58206359
 0.58167062
 0.58125569
 0.58082463
 0.58038058
 0.57992479
 0.57945703
 0.57897533
 0.57847597
 0.57795412
 0.57740513
 0.57682561
 0.57621364
 0.57556825
 0.57488909
 0.57417656
 0.57343243
 0.57266029
 0.57186534
 0.57105348
 0.57023064
 0.56940271
 0.56857606
 0.56775803
 0.56695705
 0.56618174
 0.56543951
 0.56473511
 0.56407008
 0.56344255
 0.56284740
 0.56227634
 0.56171869
 0.56116303
 0.56059973
 0.56002305
 0.55943233
 0.55883167
 0.55822898
 0.55763483
 0.55706143
 0.55652131
 0.55602566
 0.55558229
 0.55519428
 0.55485962
 0.55457215
 0.55432293
 0.55410162
 0.55389766
 0.55370168
 0.55350710
 0.55331204
 0.55312080
 0.55294440
 0.55279969
 0.55270743
 0.55269002
 0.55276924
 0.55296388
 0.55328713
 0.55374386
 0.55432871
 0.55502584
 0.55581065
 0.55665266
 0.55751847
 0.55837393
 0.55918566
 0.55992205
 0.56055330
 0.56105040
 0.56138302
 0.56151720
 0.56141393
 0.56102974
 0.56032018
 0.55924589
 0.55778035
 0.55591887
 0.55368816
 0.55115618
 0.54844079
 0.54571533
 0.54320906
 0.54120147
 0.54001045
 0.53997436
 0.54142746
 0.54466850
 0.54992306
 0.55730228
 0.56676240
 0.57807127
 0.59078902
 0.60427086
 0.61770009
 0.63015639
 0.64071548
 0.64856097
 0.65307657
 0.65388979
 0.65086029
 0.64402998
 0.63356188
 0.61968800
 0.60267444
 0.58280356
 0.56036885
 0.53567752
 0.50905549
 0.48085093
 0.45143305
 0.42118489
 0.39049092
 0.35972327
 0.32923122
 0.29933669
 0.27033481
 0.24249523
 0.21605949
 0.19123275
 0.16817233
 0.14697804
 0.12768864
 0.11028588
 0.09470473
 0.08084761
 0.06860106
 0.05785414
 0.04851760
 0.04054184
 0.03393174
 0.02875692
 0.02515699
 0.02334131
 0.02358170
 0.02619709
 0.03153025
 0.03991851
 0.05166197
 0.06699291
 0.08604982
 0.10885785
 0.13531661
 0.16519550
 0.19813701
 0.23366867
 0.27122296
 0.31016367
 0.34981587
 0.38949722
 0.42854855
 0.46636146
 0.50240083
 0.53622099
 0.56747571
 0.59592340
 0.62142854
 0.64396018
 0.66358716
 0.68046894
 0.69484137
 0.70699757
 0.71726582
 0.72598751
 0.73349753
 0.74010878
 0.74610078
 0.75171224
 0.75713753
 0.76252690
 0.76798988
 0.77360035
 0.77940193
 0.78541301
 0.79163159
 0.79804030
 0.80461144
 0.81131131
 0.81810359
 0.82495162
 0.83182014
 0.83867662
 0.84549252
 0.85224357
 0.85890869
 0.86546761
 0.87189831
 0.87817517
 0.88426813
 0.89014240
 0.89575840
 0.90107176
 0.90603373
 0.91059270
 0.91469623
 0.91829312
 0.92133420
 0.92377209
 0.92556070
 0.92665560
 0.92701521
 0.92660223
 0.92538468
 0.92333661
 0.92043934
 0.91668355
 0.91207179
 0.90662018
 0.90035842
 0.89332827
 0.88558125
 0.87717662
 0.86817968
 0.85866029
 0.84869141
 0.83834775
 0.82770473
 0.81683787
 0.80582220
 0.79473119
 0.78363445
 0.77259516
 0.76166818
 0.75089993
 0.74032985
 0.72999234
 0.71991813
 0.71013495
 0.70066766
 0.69153837
 0.68276682
 0.67437073
 0.66636599
 0.65876608
 0.65158120
 0.64481753
 0.63847701
 0.63255728
 0.62705128
 0.62194680
 0.61722670
 0.61287015
 0.60885423
 0.60515526
 0.60174950
 0.59861348
 0.59572480
 0.59306348
 0.59061348
 0.58836330
 0.58630521
 0.58443336
 0.58274184
 0.58122356
 0.57987020
 0.57867269
 0.57762170
 0.57670757
 0.57592008
 0.57524838
 0.57468135
 0.57420826
 0.57381907
 0.57350461
 0.57325688
 0.57306984
 0.57293992
 0.57286593
 0.57284815
 0.57288720
 0.57298320
 0.57313577
 0.57334422
 0.57360725
 0.57392165
 0.57428077
 0.57467386
 0.57508698
 0.57550498
 0.57591350
 0.57630049
 0.57665709
 0.57697834
 0.57726361
 0.57751633
 0.57774250
 0.57794820
 0.57813716
 0.57830946
 0.57846169
 0.57858811
 0.57868183
 0.57873566
 0.57874227
 0.57869473
 0.57858764
 0.57841866
 0.57818955
 0.57790581
 0.57757498
 0.57720459
 0.57680063
 0.57636725
 0.57590702
 0.57542102
 0.57490881
 0.57436846
 0.57379712
 0.57319162
 0.57254921
 0.57186787
 0.57114681
 0.57038686
 0.56959096
 0.56876437
 0.56791450
 0.56705021
 0.56618077
 0.56531484
 0.56446007
 0.56362327
 0.56281069
 0.56202763
 0.56127763
 0.56056195
 0.55987980
 0.55922947
 0.55860923
 0.55801738
 0.55745173
 0.55690920
 0.55638644
 0.55588108
 0.55539281
 0.55492350
 0.55447641
 0.55405506
 0.55366235
 0.55330011
 0.55296871
 0.55266648
 0.55238918
 0.55213032
 0.55188242
 0.55163867
 0.55139387
 0.55114437
 0.55088734
 0.55062020
 0.55034065
 0.55004716
 0.54973966
 0.54941975
 0.54909057
 0.54875651
 0.54842327
 0.54809779
 0.54778766
 0.54749988
 0.54723960
 0.54700964
 0.54681103
 0.54664399
 0.54650864
 0.54640521
 0.54633372
 0.54629378
 0.54628460
 0.54630494
 0.54635234
 0.54642117
 0.54650035
 0.54657168
 0.54660997
 0.54658507
 0.54646505
 0.54622013
 0.54582729
 0.54527604
 0.54457553
 0.54376258
 0.54290924
 0.54212835
 0.54157599
 0.54145040
 0.54198660
 0.54344576
 0.54609807
 0.55019839
 0.55595507
 0.56349383
 0.57282045
 0.58378651
 0.59606332
 0.60913027
 0.62228643
 0.63469326
 0.64545099
 0.65369826
 0.65871004
 0.65996407
 0.65715929
 0.65019295
 0.63911817
 0.62410243
 0.60539711
 0.58331900
 0.55824045
 0.53058362
 0.50081428
 0.46943156
 0.43695143
 0.40388414
 0.37070944
 0.33785576
 0.30568886
 0.27451195
 0.24457473
 0.21608593
 0.18922388
 0.16414164
 0.14096593
 0.11979192
 0.10067750
 0.08363968
 0.06865470
 0.05566179
 0.04457054
 0.03527250
 0.02765687
 0.02162843
 0.01712523
 0.01413360
 0.01269903
 0.01293132
 0.01500263
 0.01913741
 0.02559486
 0.03464604
 0.04654822
 0.06151897
 0.07971212
 0.10119701
 0.12594258
 0.15380733
 0.18453615
 0.21776525
 0.25303540
 0.28981244
 0.32751345
 0.36553589
 0.40328677
 0.44020870
 0.47579991
 0.50962766
 0.54133608
 0.57065049
 0.59738015
 0.62141998
 0.64275077
 0.66143665
 0.67761846
 0.69150290
 0.70334813
 0.71344685
 0.72210781
 0.72963728
 0.73632250
 0.74241902
 0.74814339
 0.75367074
 0.75913604
 0.76463709
 0.77023833
 0.77597534
 0.78186043
 0.78788880
 0.79404438
 0.80030408
 0.80664034
 0.81302290
 0.81942079
 0.82580468
 0.83214885
 0.83843220
 0.84463817
 0.85075422
 0.85677115
 0.86268245
 0.86848265
 0.87416459
 0.87971616
 0.88511801
 0.89034283
 0.89535611
 0.90011745
 0.90458168
 0.90869952
 0.91241841
 0.91568391
 0.91844191
 0.92064078
 0.92223253
 0.92317308
 0.92342240
 0.92294528
 0.92171275
 0.91970329
 0.91690332
 0.91330714
 0.90891734
 0.90374579
 0.89781483
 0.89115731
 0.88381500
 0.87583614
 0.86727345
 0.85818334
 0.84862606
 0.83866564
 0.82836904
 0.81780464
 0.80704093
 0.79614557
 0.78518506
 0.77422383
 0.76332264
 0.75253657
 0.74191348
 0.73149409
 0.72131336
 0.71140235
 0.70178937
 0.69250003
 0.68355701
 0.67498017
 0.66678710
 0.65899326
 0.65161119
 0.64464879
 0.63810765
 0.63198235
 0.62626130
 0.62092815
 0.61596319
 0.61134460
 0.60705010
 0.60305930
 0.59935580
 0.59592824
 0.59276982
 0.58987676
 0.58724650
 0.58487658
 0.58276415
 0.58090587
 0.57929714
 0.57793061
 0.57679492
 0.57587463
 0.57515139
 0.57460561
 0.57421752
 0.57396767
 0.57383706
 0.57380771
 0.57386365
 0.57399179
 0.57418200
 0.57442628
 0.57471797
 0.57505145
 0.57542210
 0.57582581
 0.57625782
 0.57671117
 0.57717569
 0.57763822
 0.57808387
 0.57849749
 0.57886483
 0.57917310
 0.57941168
 0.57957316
 0.57965483
 0.57965932
 0.57959372
 0.57946734
 0.57928936
 0.57906786
 0.57881013
 0.57852329
 0.57821399
 0.57788721
 0.57754489
 0.57718547
 0.57680461
 0.57639637
 0.57595388
 0.57546961
 0.57493572
 0.57434508
 0.57369286
 0.57297788
 0.57220289
 0.57137385
 0.57049923
 0.56958978
 0.56865873
 0.56772104
 0.56679156
 0.56588250
 0.56500151
 0.56415148
 0.56333191
 0.56254088
 0.56177631
 0.56103627
 0.56031876
 0.55962149
 0.55894197
 0.55827760
 0.55762548
 0.55698240
 0.55634508
 0.55571116
 0.55508041
 0.55445520
 0.55383996
 0.55323974
 0.55265845
 0.55209781
 0.55155713
 0.55103374
 0.55052387
 0.55002362
 0.54952992
 0.54904151
 0.54855968
 0.54808823
 0.54763255
 0.54719809
 0.54678918
 0.54640862
 0.54605795
 0.54573785
 0.54544820
 0.54518772
 0.54495348
 0.54474082
 0.54454402
 0.54435737
 0.54417589
 0.54399541
 0.54381254
 0.54362516
 0.54343310
 0.54323842
 0.54304461
 0.54285556
 0.54267487
 0.54250609
 0.54235330
 0.54222137
 0.54211528
 0.54203916
 0.54199524
 0.54198363
 0.54200263
 0.54204931
 0.54211914
 0.54220490
 0.54229510
 0.54237296
 0.54241628
 0.54239782
 0.54228629
 0.54204778
 0.54164842
 0.54105870
 0.54025966
 0.53925036
 0.53805541
 0.53673216
 0.53537723
 0.53413170
 0.53318342
 0.53276431
 0.53314086
 0.53459732
 0.53741199
 0.54182713
 0.54801393
 0.55603462
 0.56580582
 0.57706904
 0.58937555
 0.60209425
 0.61444919
 0.62558901
 0.63468049
 0.64100503
 0.64402949
 0.64343158
 0.63908148
 0.63099851
 0.61930398
 0.60418346
 0.58586276
 0.56459642
 0.54066451
 0.51437303
 0.48605388
 0.45606270
 0.42477380
 0.39257268
 0.35984743
 0.32698161
 0.29435097
 0.26232411
 0.23126458
 0.20153001
 0.17346424
 0.14738098
 0.12354203
 0.10213646
 0.08326682
 0.06694527
 0.05309912
 0.04158358
 0.03220015
 0.02471987
 0.01891023
 0.01456347
 0.01152273
 0.00970282
 0.00910302
 0.00981138
 0.01200053
 0.01591530
 0.02185269
 0.03013473
 0.04107637
 0.05495192
 0.07196438
 0.09222104
 0.11571741
 0.14233017
 0.17181857
 0.20383427
 0.23793862
 0.27362610
 0.31035116
 0.34755547
 0.38469227
 0.42124569
 0.45674435
 0.49077026
 0.52296434
 0.55303005
 0.58073651
 0.60592184
 0.62849658
 0.64844686
 0.66583528
 0.68079751
 0.69353305
 0.70429081
 0.71335138
 0.72100861
 0.72755267
 0.73325594
 0.73836225
 0.74307977
 0.74757784
 0.75198769
 0.75640631
 0.76090176
 0.76551834
 0.77028109
 0.77520020
 0.78027543
 0.78550030
 0.79086496
 0.79635750
 0.80196419
 0.80766933
 0.81345546
 0.81930422
 0.82519719
 0.83111637
 0.83704394
 0.84296169
 0.84885042
 0.85468973
 0.86045768
 0.86613025
 0.87168067
 0.87707942
 0.88229513
 0.88729626
 0.89205245
 0.89653504
 0.90071656
 0.90456994
 0.90806799
 0.91118348
 0.91388936
 0.91615871
 0.91796462
 0.91928029
 0.92007970
 0.92033852
 0.92003460
 0.91914753
 0.91765797
 0.91554726
 0.91279835
 0.90939761
 0.90533691
 0.90061479
 0.89523701
 0.88921662
 0.88257379
 0.87533550
 0.86753459
 0.85920853
 0.85039806
 0.84114651
 0.83149995
 0.82150799
 0.81122425
 0.80070616
 0.79001377
 0.77920868
 0.76835310
 0.75750948
 0.74673971
 0.73610365
 0.72565721
 0.71545073
 0.70552855
 0.69592920
 0.68668586
 0.67782624
 0.66937207
 0.66133882
 0.65373608
 0.64656836
 0.63983609
 0.63353624
 0.62766233
 0.62220457
 0.61715031
 0.61248504
 0.60819303
 0.60425739
 0.60065982
 0.59738069
 0.59439997
 0.59169854
 0.58925897
 0.58706527
 0.58510193
 0.58335321
 0.58180338
 0.58043767
 0.57924337
 0.57821012
 0.57732899
 0.57659119
 0.57598701
 0.57550585
 0.57513674
 0.57486880
 0.57469140
 0.57459418
 0.57456764
 0.57460386
 0.57469659
 0.57484016
 0.57502790
 0.57525108
 0.57549900
 0.57575996
 0.57602237
 0.57627562
 0.57651057
 0.57671992
 0.57689876
 0.57704503
 0.57715948
 0.57724464
 0.57730335
 0.57733755
 0.57734811
 0.57733530
 0.57729910
 0.57723883
 0.57715223
 0.57703495
 0.57688109
 0.57668456
 0.57644027
 0.57614445
 0.57579431
 0.57538770
 0.57492337
 0.57440172
 0.57382544
 0.57319933
 0.57252937
 0.57182169
 0.57108237
 0.57031805
 0.56953665
 0.56874745
 0.56796018
 0.56718360
 0.56642439
 0.56568663
 0.56497154
 0.56427725
 0.56359886
 0.56292929
 0.56226107
 0.56158835
 0.56090835
 0.56022143
 0.55953021
 0.55883859
 0.55815123
 0.55747338
 0.55681047
 0.55616730
 0.55554715
 0.55495130
 0.55437944
 0.55383072
 0.55330459
 0.55280080
 0.55231870
 0.55185662
 0.55141184
 0.55098147
 0.55056348
 0.55015723
 0.54976328
 0.54938289
 0.54901796
 0.54867129
 0.54834667
 0.54804831
 0.54777957
 0.54754175
 0.54733369
 0.54715225
 0.54699329
 0.54685221
 0.54672383
 0.54660235
 0.54648197
 0.54635821
 0.54622904
 0.54609502
 0.54595869
 0.54582364
 0.54569382
 0.54557300
 0.54546419
 0.54536883
 0.54528626
 0.54521383
 0.54514806
 0.54508624
 0.54502773
 0.54497397
 0.54492761
 0.54489138
 0.54486734
 0.54485682
 0.54486042
 0.54487779
 0.54490722
 0.54494581
 0.54499015
 0.54503697
 0.54508276
 0.54512181
 0.54514327
 0.54512872
 0.54505158
 0.54487863
 0.54457311
 0.54409844
 0.54342282
 0.54252533
 0.54140412
 0.54008578
 0.53863446
 0.53715927
 0.53581877
 0.53482185
 0.53442352
 0.53491419
 0.53660111
 0.53978135
 0.54470741
 0.55154773
 0.56034584
 0.57098225
 0.58314458
 0.59631286
 0.60976876
 0.62263727
 0.63396467
 0.64282515
 0.64843265
 0.65022462
 0.64789337
 0.64136515
 0.63074839
 0.61627657
 0.59826134
 0.57706059
 0.55305993
 0.52666383
 0.49829184
 0.46837569
 0.43735343
 0.40565863
 0.37370633
 0.34187991
 0.31052362
 0.27994286
 0.25041041
 0.22217375
 0.19545868
 0.17046633
 0.14736419
 0.12627518
 0.10726902
 0.09035841
 0.07550066
 0.06260401
 0.05153796
 0.04214716
 0.03426856
 0.02775084
 0.02247497
 0.01837412
 0.01545111
 0.01379127
 0.01356820
 0.01504054
 0.01853886
 0.02444307
 0.03315179
 0.04504587
 0.06044916
 0.07959044
 0.10257089
 0.12934150
 0.15969301
 0.19325940
 0.22953407
 0.26789708
 0.30765055
 0.34805880
 0.38838900
 0.42794789
 0.46611055
 0.50233971
 0.53619660
 0.56734595
 0.59555781
 0.62070777
 0.64277539
 0.66183953
 0.67806885
 0.69170749
 0.70305673
 0.71245426
 0.72025263
 0.72679825
 0.73241337
 0.73738289
 0.74194698
 0.74629894
 0.75058675
 0.75491662
 0.75935778
 0.76394849
 0.76870316
 0.77361982
 0.77868683
 0.78388770
 0.78920398
 0.79461702
 0.80010936
 0.80566582
 0.81127398
 0.81692380
 0.82260644
 0.82831283
 0.83403247
 0.83975262
 0.84545758
 0.85112793
 0.85673994
 0.86226588
 0.86767517
 0.87293589
 0.87801584
 0.88288271
 0.88750365
 0.89184495
 0.89587233
 0.89955175
 0.90284965
 0.90573230
 0.90816461
 0.91010942
 0.91152797
 0.91238117
 0.91263101
 0.91224120
 0.91117706
 0.90940530
 0.90689417
 0.90361436
 0.89954019
 0.89465078
 0.88893106
 0.88237356
 0.87498126
 0.86677105
 0.85777632
 0.84804777
 0.83765278
 0.82667382
 0.81520670
 0.80335842
 0.79124431
 0.77898395
 0.76669613
 0.75449377
 0.74247993
 0.73074496
 0.71936479
 0.70839992
 0.69789552
 0.68788287
 0.67838217
 0.66940579
 0.66096070
 0.65304937
 0.64566960
 0.63881455
 0.63247341
 0.62663284
 0.62127800
 0.61639267
 0.61195854
 0.60795451
 0.60435683
 0.60114020
 0.59827913
 0.59574897
 0.59352629
 0.59158902
 0.58991639
 0.58848898
 0.58728837
 0.58629617
 0.58549292
 0.58485750
 0.58436778
 0.58400187
 0.58373943
 0.58356221
 0.58345374
 0.58339899
 0.58338452
 0.58339896
 0.58343316
 0.58347939
 0.58353017
 0.58357745
 0.58361275
 0.58362814
 0.58361730
 0.58357591
 0.58350135
 0.58339243
 0.58324944
 0.58307452
 0.58287137
 0.58264425
 0.58239625
 0.58212803
 0.58183755
 0.58152106
 0.58117443
 0.58079393
 0.58037633
 0.57991869
 0.57941861
 0.57887503
 0.57828892
 0.57766302
 0.57700072
 0.57630503
 0.57557840
 0.57482346
 0.57404389
 0.57324450
 0.57243066
 0.57160766
 0.57078065
 0.56995471
 0.56913439
 0.56832263
 0.56752005
 0.56672515
 0.56593555
 0.56514951
 0.56436712
 0.56359047
 0.56282316
 0.56206948
 0.56133390
 0.56062094
 0.55993481
 0.55927876
 0.55865442
 0.55806177
 0.55749985
 0.55696759
 0.55646408
 0.55598820
 0.55553810
 0.55511124
 0.55470534
 0.55431952
 0.55395471
 0.55361268
 0.55329433
 0.55299844
 0.55272139
 0.55245779
 0.55220133
 0.55194531
 0.55168313
 0.55140894
 0.55111864
 0.55081099
 0.55048801
 0.55015469
 0.54981808
 0.54948633
 0.54916802
 0.54887164
 0.54860470
 0.54837238
 0.54817601
 0.54801255
 0.54787553
 0.54775700
 0.54764931
 0.54754602
 0.54744224
 0.54733470
 0.54722214
 0.54710582
 0.54698985
 0.54688105
 0.54678818
 0.54672117
 0.54669058
 0.54670702
 0.54678002
 0.54691575
 0.54711413
 0.54736627
 0.54765334
 0.54794698
 0.54821060
 0.54840105
 0.54847052
 0.54836964
 0.54805238
 0.54748289
 0.54664332
 0.54554148
 0.54421789
 0.54275238
 0.54126987
 0.53994422
 0.53899837
 0.53869907
 0.53934469
 0.54124538
 0.54469552
 0.54993918
 0.55713020
 0.56629027
 0.57727030
 0.58972217
 0.60308905
 0.61662272
 0.62943422
 0.64057867
 0.64916309
 0.65445119
 0.65593296
 0.65333967
 0.64661096
 0.63583917
 0.62121638
 0.60299732
 0.58148021
 0.55700096
 0.52993424
 0.50069482
 0.46973424
 0.43753070
 0.40457345
 0.37134473
 0.33830310
 0.30587156
 0.27443173
 0.24432261
 0.21584033
 0.18923484
 0.16470244
 0.14237632
 0.12231964
 0.10452505
 0.08892160
 0.07538691
 0.06376248
 0.05387062
 0.04553339
 0.03859340
 0.03293511
 0.02850470
 0.02532601
 0.02351048
 0.02325921
 0.02485620
 0.02865257
 0.03504203
 0.04442841
 0.05718726
 0.07362523
 0.09394224
 0.11820100
 0.14630712
 0.17800138
 0.21286491
 0.25033740
 0.28974709
 0.33034961
 0.37137064
 0.41204746
 0.45166532
 0.48958623
 0.52526985
 0.55828710
 0.58832757
 0.61520179
 0.63883910
 0.65928157
 0.67667363
 0.69124754
 0.70330458
 0.71319312
 0.72128492
 0.72795209
 0.73354723
 0.73838893
 0.74275299
 0.74686824
 0.75091544
 0.75502860
 0.75929859
 0.76377913
 0.76849436
 0.77344669
 0.77862392
 0.78400515
 0.78956542
 0.79527958
 0.80112496
 0.80708269
 0.81313724
 0.81927493
 0.82548233
 0.83174551
 0.83804952
 0.84437741
 0.85070838
 0.85701571
 0.86326545
 0.86941693
 0.87542459
 0.88124004
 0.88681337
 0.89209344
 0.89702803
 0.90156417
 0.90564891
 0.90922985
 0.91225491
 0.91467140
 0.91642541
 0.91746213
 0.91772729
 0.91716885
 0.91573869
 0.91339421
 0.91010045
 0.90583290
 0.90058038
 0.89434689
 0.88715213
 0.87903118
 0.87003418
 0.86022626
 0.84968744
 0.83851142
 0.82680313
 0.81467540
 0.80224548
 0.78963207
 0.77695263
 0.76432068
 0.75184242
 0.73961346
 0.72771648
 0.71622046
 0.70518130
 0.69464323
 0.68464017
 0.67519661
 0.66632840
 0.65804387
 0.65034514
 0.64322912
 0.63668760
 0.63070694
 0.62526814
 0.62034814
 0.61592193
 0.61196440
 0.60845083
 0.60535602
 0.60265294
 0.60031216
 0.59830249
 0.59659216
 0.59514979
 0.59394480
 0.59294771
 0.59213078
 0.59146912
 0.59094157
 0.59053080
 0.59022267
 0.59000548
 0.58986938
 0.58980583
 0.58980695
 0.58986477
 0.58997077
 0.59011599
 0.59029160
 0.59048922
 0.59070047
 0.59091565
 0.59112240
 0.59130536
 0.59144736
 0.59153173
 0.59154462
 0.59147634
 0.59132163
 0.59107908
 0.59075037
 0.59033950
 0.58985213
 0.58929502
 0.58867528
 0.58799977
 0.58727489
 0.58650685
 0.58570187
 0.58486593
 0.58400421
 0.58312085
 0.58221917
 0.58130218
 0.58037289
 0.57943405
 0.57848757
 0.57753416
 0.57657372
 0.57560658
 0.57463465
 0.57366161
 0.57269227
 0.57173176
 0.57078529
 0.56985827
 0.56895638
 0.56808506
 0.56724855
 0.56644927
 0.56568771
 0.56496304
 0.56427362
 0.56361728
 0.56299134
 0.56239310
 0.56182075
 0.56127421
 0.56075496
 0.56026480
 0.55980429
 0.55937183
 0.55896402
 0.55857669
 0.55820593
 0.55784851
 0.55750189
 0.55716425
 0.55683474
 0.55651392
 0.55620375
 0.55590671
 0.55562445
 0.55535693
 0.55510254
 0.55485897
 0.55462384
 0.55439458
 0.55416781
 0.55393930
 0.55370478
 0.55346153
 0.55320955
 0.55295176
 0.55269294
 0.55243855
 0.55219399
 0.55196473
 0.55175662
 0.55157554
 0.55142674
 0.55131428
 0.55124140
 0.55121118
 0.55122689
 0.55129135
 0.55140568
 0.55156801
 0.55177239
 0.55200797
 0.55225820
 0.55249980
 0.55270206
 0.55282739
 0.55283365
 0.55267813
 0.55232210
 0.55173557
 0.55090237
 0.54982636
 0.54853901
 0.54710763
 0.54564214
 0.54429881
 0.54327981
 0.54282824
 0.54321821
 0.54473890
 0.54767145
 0.55225842
 0.55866710
 0.56694964
 0.57700457
 0.58854526
 0.60108249
 0.61392949
 0.62623797
 0.63706992
 0.64549927
 0.65072117
 0.65213625
 0.64938516
 0.64233306
 0.63102510
 0.61563778
 0.59644101
 0.57377343
 0.54802766
 0.51964035
 0.48908332
 0.45685330
 0.42345901
 0.38940609
 0.35518236
 0.32124681
 0.28802487
 0.25590887
 0.22525942
 0.19640225
 0.16961791
 0.14512643
 0.12307291
 0.10351998
 0.08644958
 0.07177314
 0.05934774
 0.04899709
 0.04053690
 0.03380351
 0.02868243
 0.02513258
 0.02320273
 0.02303873
 0.02488078
 0.02905061
 0.03592850
 0.04592096
 0.05942067
 0.07676296
 0.09818364
 0.12378303
 0.15349929
 0.18709296
 0.22414440
 0.26406587
 0.30612851
 0.34950249
 0.39330548
 0.43665321
 0.47870615
 0.51870850
 0.55601819
 0.59012822
 0.62067993
 0.64746861
 0.67044199
 0.68969177
 0.70543823
 0.71800864
 0.72781036
 0.73530054
 0.74095495
 0.74523918
 0.74858507
 0.75137435
 0.75392957
 0.75651086
 0.75931680
 0.76248788
 0.76611190
 0.77023098
 0.77484949
 0.77994177
 0.78545895
 0.79133553
 0.79749631
 0.80386395
 0.81036601
 0.81694003
 0.82353567
 0.83011431
 0.83664716
 0.84311304
 0.84949594
 0.85578209
 0.86195675
 0.86800127
 0.87389141
 0.87959717
 0.88508371
 0.89031244
 0.89524189
 0.89982826
 0.90402603
 0.90778885
 0.91107048
 0.91382548
 0.91600935
 0.91757824
 0.91848928
 0.91870174
 0.91817881
 0.91688924
 0.91480834
 0.91191834
 0.90820878
 0.90367714
 0.89832969
 0.89218188
 0.88525814
 0.87759150
 0.86922356
 0.86020490
 0.85059521
 0.84046247
 0.82988116
 0.81893000
 0.80768985
 0.79624251
 0.78467002
 0.77305393
 0.76147392
 0.75000594
 0.73872058
 0.72768206
 0.71694788
 0.70656814
 0.69658426
 0.68702751
 0.67791880
 0.66927007
 0.66108684
 0.65337066
 0.64612086
 0.63933546
 0.63301171
 0.62714650
 0.62173652
 0.61677763
 0.61226356
 0.60818434
 0.60452538
 0.60126783
 0.59838964
 0.59586640
 0.59367166
 0.59177703
 0.59015305
 0.58877119
 0.58760602
 0.58663640
 0.58584494
 0.58521605
 0.58473400
 0.58438208
 0.58414267
 0.58399776
 0.58392904
 0.58391799
 0.58394612
 0.58399581
 0.58405156
 0.58410094
 0.58413497
 0.58414779
 0.58413606
 0.58409876
 0.58403716
 0.58395467
 0.58385582
 0.58374478
 0.58362417
 0.58349476
 0.58335589
 0.58320588
 0.58304198
 0.58286010
 0.58265520
 0.58242233
 0.58215805
 0.58186082
 0.58153008
 0.58116477
 0.58076228
 0.58031862
 0.57982941
 0.57929074
 0.57869930
 0.57805226
 0.57734764
 0.57658553
 0.57576945
 0.57490703
 0.57400924
 0.57308871
 0.57215800
 0.57122880
 0.57031171
 0.56941592
 0.56854843
 0.56771312
 0.56691040
 0.56613768
 0.56539043
 0.56466313
 0.56394982
 0.56324437
 0.56254096
 0.56183490
 0.56112356
 0.56040715
 0.55968863
 0.55897306
 0.55826669
 0.55757670
 0.55691127
 0.55627937
 0.55568956
 0.55514831
 0.55465866
 0.55421988
 0.55382807
 0.55347696
 0.55315870
 0.55286434
 0.55258435
 0.55230919
 0.55203012
 0.55174002
 0.55143383
 0.55110866
 0.55076379
 0.55040088
 0.55002452
 0.54964247
 0.54926476
 0.54890194
 0.54856323
 0.54825562
 0.54798401
 0.54775143
 0.54755913
 0.54740628
 0.54728995
 0.54720559
 0.54714804
 0.54711233
 0.54709389
 0.54708854
 0.54709266
 0.54710421
 0.54712364
 0.54715408
 0.54720008
 0.54726514
 0.54734919
 0.54744692
 0.54754739
 0.54763395
 0.54768411
 0.54766936
 0.54755585
 0.54730665
 0.54688555
 0.54626220
 0.54541791
 0.54435250
 0.54309190
 0.54169592
 0.54026497
 0.53894405
 0.53792289
 0.53743159
 0.53773114
 0.53909802
 0.54180177
 0.54607514
 0.55207813
 0.55985895
 0.56931652
 0.58017049
 0.59194531
 0.60397549
 0.61543935
 0.62542570
 0.63302968
 0.63745860
 0.63811673
 0.63464357
 0.62690306
 0.61494323
 0.59895054
 0.57921288
 0.55609399
 0.53001582
 0.50144422
 0.47087535
 0.43882112
 0.40579395
 0.37229136
 0.33878311
 0.30570311
 0.27344770
 0.24237785
 0.21282091
 0.18506737
 0.15936128
 0.13588731
 0.11476057
 0.09602386
 0.07965391
 0.06557472
 0.05367568
 0.04383303
 0.03593365
 0.02989953
 0.02571006
 0.02341888
 0.02316207
 0.02515607
 0.02968453
 0.03707510
 0.04766831
 0.06178104
 0.07966790
 0.10148418
 0.12725482
 0.15685312
 0.18999176
 0.22622720
 0.26497688
 0.30554756
 0.34717214
 0.38905154
 0.43039724
 0.47046970
 0.50860920
 0.54425876
 0.57698033
 0.60646596
 0.63254448
 0.65518251
 0.67447789
 0.69064450
 0.70398965
 0.71488662
 0.72374608
 0.73098885
 0.73702190
 0.74221859
 0.74690426
 0.75134756
 0.75575765
 0.76028601
 0.76503129
 0.77004578
 0.77534275
 0.78090470
 0.78669194
 0.79265092
 0.79872102
 0.80483932
 0.81094372
 0.81697555
 0.82288220
 0.82861983
 0.83415526
 0.83946686
 0.84454398
 0.84938560
 0.85399844
 0.85839525
 0.86259296
 0.86661059
 0.87046680
 0.87417751
 0.87775373
 0.88119933
 0.88450841
 0.88766247
 0.89062809
 0.89335624
 0.89578379
 0.89783693
 0.89943515
 0.90049530
 0.90093553
 0.90067952
 0.89966097
 0.89782754
 0.89514312
 0.89158788
 0.88715675
 0.88185790
 0.87571200
 0.86875214
 0.86102346
 0.85258200
 0.84349276
 0.83382768
 0.82366425
 0.81308445
 0.80217339
 0.79101713
 0.77970056
 0.76830580
 0.75691164
 0.74559351
 0.73442286
 0.72346563
 0.71278028
 0.70241658
 0.69241555
 0.68281036
 0.67362722
 0.66488561
 0.65659810
 0.64877058
 0.64140354
 0.63449417
 0.62803818
 0.62203059
 0.61646532
 0.61133437
 0.60662754
 0.60233256
 0.59843561
 0.59492158
 0.59177406
 0.58897520
 0.58650589
 0.58434631
 0.58247614
 0.58087430
 0.57951815
 0.57838335
 0.57744460
 0.57667706
 0.57605753
 0.57556471
 0.57517898
 0.57488210
 0.57465764
 0.57449188
 0.57437423
 0.57429695
 0.57425407
 0.57424060
 0.57425252
 0.57428721
 0.57434339
 0.57441998
 0.57451456
 0.57462246
 0.57473723
 0.57485194
 0.57496028
 0.57505677
 0.57513644
 0.57519473
 0.57522781
 0.57523274
 0.57520712
 0.57514839
 0.57505323
 0.57491767
 0.57473801
 0.57451167
 0.57423742
 0.57391488
 0.57354396
 0.57312479
 0.57265826
 0.57214693
 0.57159539
 0.57100973
 0.57039632
 0.56976073
 0.56910764
 0.56844130
 0.56776592
 0.56708502
 0.56640017
 0.56570995
 0.56501011
 0.56429495
 0.56355916
 0.56279915
 0.56201370
 0.56120414
 0.56037460
 0.55953223
 0.55868669
 0.55784865
 0.55702786
 0.55623181
 0.55546561
 0.55473272
 0.55403555
 0.55337537
 0.55275157
 0.55216139
 0.55160072
 0.55106564
 0.55055372
 0.55006431
 0.54959819
 0.54915730
 0.54874481
 0.54836513
 0.54802318
 0.54772285
 0.54746508
 0.54724678
 0.54706098
 0.54689815
 0.54674755
 0.54659834
 0.54644010
 0.54626365
 0.54606189
 0.54583063
 0.54556870
 0.54527740
 0.54495975
 0.54462036
 0.54426591
 0.54390564
 0.54355105
 0.54321448
 0.54290683
 0.54263562
 0.54240402
 0.54221121
 0.54205337
 0.54192463
 0.54181778
 0.54172523
 0.54164052
 0.54155994
 0.54148349
 0.54141454
 0.54135883
 0.54132311
 0.54131402
 0.54133712
 0.54139539
 0.54148705
 0.54160306
 0.54172542
 0.54182679
 0.54187155
 0.54181809
 0.54162237
 0.54124295
 0.54064801
 0.53982354
 0.53878180
 0.53756836
 0.53626711
 0.53500276
 0.53394122
 0.53328696
 0.53327650
 0.53416605
 0.53621250
 0.53964801
 0.54464933
 0.55130419
 0.55957772
 0.56928306
 0.58006156
 0.59138000
 0.60255217
 0.61279039
 0.62128506
 0.62729795
 0.63024321
 0.62973088
 0.62556573
 0.61771481
 0.60626549
 0.59138905
 0.57331540
 0.55231826
 0.52870797
 0.50282849
 0.47505437
 0.44578441
 0.41543097
 0.38440697
 0.35311424
 0.32193670
 0.29123880
 0.26136688
 0.23264915
 0.20539075
 0.17986306
 0.15628979
 0.13483449
 0.11559301
 0.09859250
 0.08379580
 0.07111047
 0.06040165
 0.05150889
 0.04426601
 0.03852263
 0.03416552
 0.03113786
 0.02945429
 0.02920943
 0.03057795
 0.03380529
 0.03918956
 0.04705668
 0.05773091
 0.07150338
 0.08860092
 0.10915782
 0.13319328
 0.16059668
 0.19112236
 0.22439446
 0.25992127
 0.29711797
 0.33533599
 0.37389677
 0.41212669
 0.44938957
 0.48511347
 0.51881034
 0.55008892
 0.57866174
 0.60434758
 0.62707009
 0.64685310
 0.66381238
 0.67814323
 0.69010428
 0.69999860
 0.70815379
 0.71490263
 0.72056561
 0.72543663
 0.72977278
 0.73378842
 0.73765343
 0.74149444
 0.74539857
 0.74941902
 0.75358196
 0.75789406
 0.76234958
 0.76693618
 0.77163887
 0.77644222
 0.78133165
 0.78629431
 0.79132005
 0.79640191
 0.80153601
 0.80672078
 0.81195576
 0.81724041
 0.82257269
 0.82794725
 0.83335355
 0.83877430
 0.84418491
 0.84955426
 0.85484659
 0.86002351
 0.86504549
 0.86987258
 0.87446507
 0.87878442
 0.88279451
 0.88646218
 0.88975679
 0.89264911
 0.89511041
 0.89711223
 0.89862665
 0.89962635
 0.90008430
 0.89997319
 0.89926570
 0.89793564
 0.89595984
 0.89331976
 0.89000262
 0.88600184
 0.88131719
 0.87595501
 0.86992828
 0.86325627
 0.85596346
 0.84807825
 0.83963189
 0.83065825
 0.82119445
 0.81128149
 0.80096453
 0.79029321
 0.77932248
 0.76811409
 0.75673781
 0.74527112
 0.73379721
 0.72240179
 0.71117014
 0.70018464
 0.68952265
 0.67925434
 0.66944010
 0.66012831
 0.65135453
 0.64314235
 0.63550545
 0.62844956
 0.62197307
 0.61606658
 0.61071186
 0.60588169
 0.60154058
 0.59764663
 0.59415376
 0.59101438
 0.58818213
 0.58561504
 0.58327828
 0.58114605
 0.57920165
 0.57743598
 0.57584501
 0.57442732
 0.57318220
 0.57210810
 0.57120117
 0.57045392
 0.56985442
 0.56938666
 0.56903183
 0.56876981
 0.56858059
 0.56844520
 0.56834676
 0.56827167
 0.56821100
 0.56816123
 0.56812368
 0.56810275
 0.56810396
 0.56813257
 0.56819282
 0.56828721
 0.56841537
 0.56857312
 0.56875235
 0.56894185
 0.56912866
 0.56929926
 0.56944014
 0.56953830
 0.56958217
 0.56956306
 0.56947666
 0.56932358
 0.56910845
 0.56883811
 0.56851980
 0.56815997
 0.56776390
 0.56733556
 0.56687727
 0.56638939
 0.56587051
 0.56531838
 0.56473134
 0.56410952
 0.56345541
 0.56277398
 0.56207215
 0.56135812
 0.56064062
 0.55992800
 0.55922703
 0.55854151
 0.55787170
 0.55721486
 0.55656650
 0.55592165
 0.55527548
 0.55462374
 0.55396325
 0.55329307
 0.55261577
 0.55193795
 0.55126963
 0.55062229
 0.55000661
 0.54943079
 0.54889961
 0.54841416
 0.54797203
 0.54756809
 0.54719587
 0.54684914
 0.54652311
 0.54621470
 0.54592166
 0.54564118
 0.54536897
 0.54509963
 0.54482794
 0.54454999
 0.54426364
 0.54396826
 0.54366467
 0.54335552
 0.54304568
 0.54274192
 0.54245152
 0.54218071
 0.54193383
 0.54171357
 0.54152173
 0.54135974
 0.54122850
 0.54112760
 0.54105467
 0.54100540
 0.54097451
 0.54095663
 0.54094676
 0.54093993
 0.54093120
 0.54091626
 0.54089212
 0.54085719
 0.54081063
 0.54075161
 0.54067951
 0.54059495
 0.54050100
 0.54040347
 0.54031017
 0.54022966
 0.54017022
 0.54013971
 0.54014558
 0.54019402
 0.54028791
 0.54042418
 0.54059173
 0.54077060
 0.54093204
 0.54103912
 0.54104791
 0.54091027
 0.54057895
 0.54001517
 0.53919762
 0.53813161
 0.53685749
 0.53545796
 0.53406398
 0.53285802
 0.53207304
 0.53198512
 0.53289802
 0.53511960
 0.53893128
 0.54455241
 0.55210145
 0.56155669
 0.57272145
 0.58520054
 0.59839657
 0.61153467
 0.62372126
 0.63403503
 0.64163536
 0.64586087
 0.64628811
 0.64273655
 0.63522962
 0.62393642
 0.60911660
 0.59108000
 0.57016321
 0.54671987
 0.52111884
 0.49374422
 0.46499301
 0.43526877
 0.40497150
 0.37448561
 0.34416885
 0.31434522
 0.28530359
 0.25730126
 0.23057005
 0.20532056
 0.18174137
 0.15999147
 0.14018846
 0.12239734
 0.10662480
 0.09282089
 0.08088636
 0.07068303
 0.06204533
 0.05479362
 0.04875035
 0.04375890
 0.03970305
 0.03652465
 0.03423738
 0.03293534
 0.03279570
 0.03407497
 0.03709805
 0.04223944
 0.04989678
 0.06045848
 0.07426851
 0.09159247
 0.11258777
 0.13728003
 0.16554747
 0.19711540
 0.23156282
 0.26834187
 0.30680799
 0.34625713
 0.38596519
 0.42522571
 0.46338260
 0.49985579
 0.53415875
 0.56590811
 0.59482703
 0.62074507
 0.64359682
 0.66341918
 0.68034535
 0.69459327
 0.70644786
 0.71623889
 0.72431734
 0.73103360
 0.73671936
 0.74167385
 0.74615418
 0.75036985
 0.75448186
 0.75860600
 0.76281908
 0.76716620
 0.77166776
 0.77632561
 0.78112917
 0.78606137
 0.79110407
 0.79624166
 0.80146237
 0.80675803
 0.81212303
 0.81755343
 0.82304570
 0.82859525
 0.83419463
 0.83983192
 0.84549006
 0.85114728
 0.85677836
 0.86235570
 0.86784993
 0.87323019
 0.87846485
 0.88352253
 0.88837286
 0.89298628
 0.89733268
 0.90137955
 0.90509057
 0.90842556
 0.91134145
 0.91379330
 0.91573480
 0.91711858
 0.91789702
 0.91802410
 0.91745772
 0.91616194
 0.91410831
 0.91127692
 0.90765735
 0.90324992
 0.89806680
 0.89213243
 0.88548289
 0.87816419
 0.87023019
 0.86174085
 0.85276077
 0.84335754
 0.83359928
 0.82355210
 0.81327848
 0.80283704
 0.79228331
 0.78167032
 0.77104838
 0.76046442
 0.74996190
 0.73958143
 0.72936149
 0.71933853
 0.70954666
 0.70001725
 0.69077920
 0.68185967
 0.67328483
 0.66507962
 0.65726636
 0.64986274
 0.64288057
 0.63632561
 0.63019823
 0.62449421
 0.61920544
 0.61432073
 0.60982705
 0.60571082
 0.60195872
 0.59855775
 0.59549450
 0.59275438
 0.59032114
 0.58817686
 0.58630233
 0.58467728
 0.58328056
 0.58209030
 0.58108451
 0.58024217
 0.57954466
 0.57897674
 0.57852654
 0.57818497
 0.57794521
 0.57780300
 0.57775731
 0.57781070
 0.57796846
 0.57823671
 0.57862027
 0.57912106
 0.57973696
 0.58046053
 0.58127735
 0.58216501
 0.58309390
 0.58403030
 0.58494068
 0.58579540
 0.58657078
 0.58724962
 0.58782099
 0.58827927
 0.58862227
 0.58884847
 0.58895405
 0.58893078
 0.58876563
 0.58844221
 0.58794343
 0.58725436
 0.58636455
 0.58526989
 0.58397443
 0.58249229
 0.58084883
 0.57908013
 0.57723018
 0.57534669
 0.57347692
 0.57166464
 0.56994826
 0.56835969
 0.56692313
 0.56565400
 0.56455826
 0.56363254
 0.56286494
 0.56223625
 0.56172145
 0.56129159
 0.56091646
 0.56056802
 0.56022385
 0.55986887
 0.55949482
 0.55909807
 0.55867723
 0.55823201
 0.55776312
 0.55727255
 0.55676346
 0.55623971
 0.55570582
 0.55516751
 0.55463244
 0.55411011
 0.55361056
 0.55314228
 0.55271058
 0.55231691
 0.55195914
 0.55163221
 0.55132861
 0.55103907
 0.55075376
 0.55046397
 0.55016369
 0.54985062
 0.54952625
 0.54919511
 0.54886408
 0.54854180
 0.54823828
 0.54796380
 0.54772710
 0.54753357
 0.54738461
 0.54727844
 0.54721139
 0.54717855
 0.54717350
 0.54718774
 0.54721104
 0.54723296
 0.54724486
 0.54724130
 0.54722018
 0.54718194
 0.54712878
 0.54706467
 0.54699597
 0.54693186
 0.54688398
 0.54686521
 0.54688843
 0.54696552
 0.54710638
 0.54731771
 0.54760130
 0.54795207
 0.54835672
 0.54879347
 0.54923287
 0.54963905
 0.54997087
 0.55018372
 0.55023243
 0.55007559
 0.54968086
 0.54903054
 0.54812709
 0.54699871
 0.54570511
 0.54434349
 0.54305346
 0.54201905
 0.54146570
 0.54165115
 0.54285015
 0.54533276
 0.54933639
 0.55503227
 0.56248836
 0.57163297
 0.58222493
 0.59383741
 0.60586262
 0.61754405
 0.62804007
 0.63651520
 0.64224152
 0.64468114
 0.64352395
 0.63867509
 0.63020931
 0.61831675
 0.60325764
 0.58533194
 0.56486238
 0.54218661
 0.51765406
 0.49162396
 0.46446279
 0.43654004
 0.40822139
 0.37985844
 0.35177636
 0.32426227
 0.29755850
 0.27186262
 0.24733337
 0.22409869
 0.20226184
 0.18190323
 0.16307868
 0.14581679
 0.13011843
 0.11595925
 0.10329442
 0.09206459
 0.08220275
 0.07364274
 0.06632953
 0.06023034
 0.05534469
 0.05171200
 0.04941611
 0.04858684
 0.04939804
 0.05206114
 0.05681361
 0.06390324
 0.07357010
 0.08602829
 0.10144847
 0.11994173
 0.14154486
 0.16620804
 0.19378620
 0.22403544
 0.25661575
 0.29110029
 0.32699086
 0.36373848
 0.40076753
 0.43750190
 0.47339048
 0.50792967
 0.54068119
 0.57128489
 0.59946732
 0.62504683
 0.64793551
 0.66813780
 0.68574512
 0.70092630
 0.71391415
 0.72498861
 0.73445765
 0.74263722
 0.74983265
 0.75632342
 0.76235286
 0.76812293
 0.77379350
 0.77948443
 0.78527923
 0.79122948
 0.79736012
 0.80367555
 0.81016579
 0.81681185
 0.82358959
 0.83047236
 0.83743306
 0.84444584
 0.85148713
 0.85853539
 0.86556937
 0.87256568
 0.87949658
 0.88632855
 0.89302160
 0.89952921
 0.90579887
 0.91177362
 0.91739484
 0.92260569
 0.92735423
 0.93159512
 0.93528938
 0.93840292
 0.94090521
 0.94276878
 0.94396922
 0.94448496
 0.94429664
 0.94338656
 0.94173882
 0.93934047
 0.93618280
 0.93226193
 0.92757872
 0.92213881
 0.91595334
 0.90904063
 0.90142784
 0.89315187
 0.88425912
 0.87480447
 0.86484987
 0.85446307
 0.84371622
 0.83268390
 0.82144047
 0.81005754
 0.79860238
 0.78713791
 0.77572345
 0.76441561
 0.75326847
 0.74233279
 0.73165503
 0.72127668
 0.71123419
 0.70155910
 0.69227780
 0.68341131
 0.67497545
 0.66698191
 0.65943924
 0.65235318
 0.64572586
 0.63955487
 0.63383319
 0.62855031
 0.62369373
 0.61924941
 0.61520103
 0.61152873
 0.60820849
 0.60521276
 0.60251225
 0.60007770
 0.59788097
 0.59589524
 0.59409539
 0.59245912
 0.59096804
 0.58960795
 0.58836796
 0.58723915
 0.58621349
 0.58528354
 0.58444249
 0.58368423
 0.58300319
 0.58239417
 0.58185252
 0.58137487
 0.58095959
 0.58060646
 0.58031558
 0.58008621
 0.57991612
 0.57980173
 0.57973845
 0.57972087
 0.57974276
 0.57979715
 0.57987669
 0.57997445
 0.58008465
 0.58020277
 0.58032488
 0.58044658
 0.58056270
 0.58066809
 0.58075879
 0.58083275
 0.58088932
 0.58092834
 0.58094949
 0.58095248
 0.58093744
 0.58090464
 0.58085366
 0.58078260
 0.58068790
 0.58056499
 0.58040922
 0.58021663
 0.57998414
 0.57970965
 0.57939227
 0.57903306
 0.57863539
 0.57820416
 0.57774402
 0.57725786
 0.57674645
 0.57620959
 0.57564758
 0.57506225
 0.57445733
 0.57383863
 0.57321459
 0.57259722
 0.57200258
 0.57145005
 0.57096013
 0.57055149
 0.57023840
 0.57002928
 0.56992629
 0.56992558
 0.57001743
 0.57018647
 0.57041243
 0.57067169
 0.57093945
 0.57119160
 0.57140595
 0.57156260
 0.57164376
 0.57163359
 0.57151808
 0.57128481
 0.57092242
 0.57042016
 0.56976849
 0.56896080
 0.56799581
 0.56687946
 0.56562535
 0.56425356
 0.56278851
 0.56125694
 0.55968684
 0.55810701
 0.55654679
 0.55503571
 0.55360308
 0.55227758
 0.55108638
 0.55005348
 0.54919706
 0.54852690
 0.54804270
 0.54773400
 0.54758136
 0.54755839
 0.54763400
 0.54777517
 0.54795049
 0.54813425
 0.54830971
 0.54847040
 0.54861876
 0.54876305
 0.54891345
 0.54907864
 0.54926313
 0.54946531
 0.54967601
 0.54987780
 0.55004501
 0.55014500
 0.55014065
 0.54999384
 0.54966973
 0.54914183
 0.54839839
 0.54745006
 0.54633796
 0.54514089
 0.54398035
 0.54302236
 0.54247537
 0.54258309
 0.54361137
 0.54582809
 0.54947641
 0.55474292
 0.56172380
 0.57039255
 0.58057365
 0.59192752
 0.60395328
 0.61601680
 0.62740869
 0.63742944
 0.64548505
 0.65116409
 0.65426885
 0.65479236
 0.65285614
 0.64863530
 0.64229259
 0.63393286
 0.62358135
 0.61118522
 0.59663492
 0.57979947
 0.56056851
 0.53889304
 0.51481833
 0.48850428
 0.46023179
 0.43039513
 0.39948192
 0.36804233
 0.33665044
 0.30586260
 0.27617937
 0.24801699
 0.22169188
 0.19741774
 0.17531305
 0.15541510
 0.13769686
 0.12208299
 0.10846294
 0.09670109
 0.08664563
 0.07813826
 0.07102628
 0.06517610
 0.06048643
 0.05689841
 0.05440145
 0.05303473
 0.05288488
 0.05408046
 0.05678297
 0.06117476
 0.06744450
 0.07577218
 0.08631541
 0.09919855
 0.11450481
 0.13227065
 0.15248167
 0.17506911
 0.19990723
 0.22681206
 0.25554198
 0.28580113
 0.31724622
 0.34949736
 0.38215189
 0.41479986
 0.44703912
 0.47848865
 0.50879984
 0.53766604
 0.56483109
 0.59009609
 0.61332316
 0.63443537
 0.65341380
 0.67029394
 0.68516248
 0.69815398
 0.70944552
 0.71924812
 0.72779493
 0.73532798
 0.74208536
 0.74829059
 0.75414436
 0.75981835
 0.76545110
 0.77114616
 0.77697344
 0.78297352
 0.78916346
 0.79554241
 0.80209584
 0.80879860
 0.81561758
 0.82251468
 0.82944988
 0.83638343
 0.84327703
 0.85009412
 0.85680043
 0.86336528
 0.86976309
 0.87597427
 0.88198465
 0.88778350
 0.89336103
 0.89870633
 0.90380580
 0.90864185
 0.91319162
 0.91742593
 0.92130908
 0.92479986
 0.92785344
 0.93042339
 0.93246317
 0.93392691
 0.93477022
 0.93495137
 0.93443301
 0.93318391
 0.93118044
 0.92840782
 0.92486098
 0.92054511
 0.91547548
 0.90967650
 0.90317989
 0.89602268
 0.88824615
 0.87989609
 0.87102360
 0.86168538
 0.85194270
 0.84185980
 0.83150214
 0.82093527
 0.81022390
 0.79943116
 0.78861762
 0.77784072
 0.76715459
 0.75661015
 0.74625514
 0.73613370
 0.72628549
 0.71674485
 0.70754038
 0.69869516
 0.69022736
 0.68215061
 0.67447392
 0.66720138
 0.66033198
 0.65386004
 0.64777615
 0.64206818
 0.63672203
 0.63172205
 0.62705145
 0.62269298
 0.61862991
 0.61484694
 0.61133067
 0.60806949
 0.60505299
 0.60227142
 0.59971513
 0.59737368
 0.59523500
 0.59328469
 0.59150635
 0.58988278
 0.58839734
 0.58703475
 0.58578130
 0.58462503
 0.58355622
 0.58256850
 0.58165958
 0.58083107
 0.58008703
 0.57943192
 0.57886862
 0.57839729
 0.57801502
 0.57771608
 0.57749234
 0.57733372
 0.57722891
 0.57716640
 0.57713591
 0.57712931
 0.57714089
 0.57716699
 0.57720560
 0.57725608
 0.57731904
 0.57739589
 0.57748783
 0.57759470
 0.57771458
 0.57784443
 0.57798123
 0.57812294
 0.57826837
 0.57841649
 0.57856601
 0.57871544
 0.57886346
 0.57900910
 0.57915116
 0.57928727
 0.57941313
 0.57952264
 0.57960877
 0.57966422
 0.57968175
 0.57965427
 0.57957547
 0.57944118
 0.57925062
 0.57900647
 0.57871350
 0.57837661
 0.57799940
 0.57758384
 0.57713084
 0.57664098
 0.57611470
 0.57555225
 0.57495387
 0.57432071
 0.57365533
 0.57296154
 0.57224347
 0.57150479
 0.57074873
 0.56997888
 0.56920013
 0.56841907
 0.56764333
 0.56688032
 0.56613622
 0.56541596
 0.56472367
 0.56406287
 0.56343606
 0.56284390
 0.56228500
 0.56175661
 0.56125606
 0.56078189
 0.56033405
 0.55991325
 0.55952000
 0.55915397
 0.55881383
 0.55849732
 0.55820085
 0.55791881
 0.55764341
 0.55736543
 0.55707567
 0.55676642
 0.55643236
 0.55607113
 0.55568383
 0.55527580
 0.55485718
 0.55444237
 0.55404811
 0.55369050
 0.55338248
 0.55313242
 0.55294414
 0.55281772
 0.55275055
 0.55273867
 0.55277838
 0.55286821
 0.55301025
 0.55321000
 0.55347492
 0.55381223
 0.55422689
 0.55472011
 0.55528814
 0.55592062
 0.55659844
 0.55729168
 0.55795862
 0.55854654
 0.55899394
 0.55923401
 0.55919893
 0.55882536
 0.55806148
 0.55687536
 0.55526378
 0.55326003
 0.55093997
 0.54842597
 0.54588906
 0.54354858
 0.54166829
 0.54054676
 0.54050092
 0.54184215
 0.54484585
 0.54971569
 0.55654486
 0.56527752
 0.57567629
 0.58730342
 0.59952452
 0.61154307
 0.62246931
 0.63141789
 0.63761364
 0.64047498
 0.63965092
 0.63500969
 0.62659728
 0.61458906
 0.59924870
 0.58089926
 0.55990474
 0.53665848
 0.51157370
 0.48507246
 0.45757163
 0.42946686
 0.40111758
 0.37283675
 0.34488790
 0.31749027
 0.29082966
 0.26507146
 0.24037112
 0.21687838
 0.19473394
 0.17406032
 0.15495143
 0.13746507
 0.12162085
 0.10740361
 0.09477095
 0.08366376
 0.07401839
 0.06578017
 0.05891727
 0.05343435
 0.04938401
 0.04687385
 0.04606709
 0.04717634
 0.05045151
 0.05616300
 0.06458121
 0.07595330
 0.09047925
 0.10828963
 0.12942762
 0.15383675
 0.18135433
 0.21171033
 0.24453210
 0.27935539
 0.31564182
 0.35280202
 0.39022246
 0.42729322
 0.46343401
 0.49811650
 0.53088299
 0.56136115
 0.58927471
 0.61444973
 0.63681621
 0.65640513
 0.67334060
 0.68782725
 0.70013299
 0.71056804
 0.71946218
 0.72714273
 0.73391637
 0.74005617
 0.74579417
 0.75131820
 0.75677204
 0.76225824
 0.76784297
 0.77356239
 0.77942957
 0.78544105
 0.79158238
 0.79783252
 0.80416763
 0.81056435
 0.81700240
 0.82346569
 0.82994176
 0.83642013
 0.84289008
 0.84933858
 0.85574813
 0.86209425
 0.86834293
 0.87444888
 0.88035558
 0.88599772
 0.89130493
 0.89620548
 0.90062933
 0.90451027
 0.90778770
 0.91040786
 0.91232429
 0.91349718
 0.91389205
 0.91347861
 0.91223070
 0.91012739
 0.90715483
 0.90330787
 0.89859099
 0.89301890
 0.88661706
 0.87942284
 0.87148653
 0.86287135
 0.85365181
 0.84391093
 0.83373712
 0.82322139
 0.81245464
 0.80152483
 0.79051392
 0.77949518
 0.76853189
 0.75767754
 0.74697714
 0.73646842
 0.72618268
 0.71614562
 0.70637871
 0.69690101
 0.68773057
 0.67888465
 0.67037899
 0.66222700
 0.65443973
 0.64702676
 0.63999705
 0.63335887
 0.62711889
 0.62128092
 0.61584521
 0.61080837
 0.60616367
 0.60190111
 0.59800714
 0.59446439
 0.59125219
 0.58834800
 0.58572931
 0.58337500
 0.58126598
 0.57938498
 0.57771640
 0.57624636
 0.57496262
 0.57385406
 0.57290952
 0.57211647
 0.57146040
 0.57092517
 0.57049419
 0.57015174
 0.56988394
 0.56967933
 0.56952934
 0.56942866
 0.56937518
 0.56936907
 0.56941132
 0.56950262
 0.56964283
 0.56983123
 0.57006674
 0.57034794
 0.57067244
 0.57103595
 0.57143171
 0.57185078
 0.57228320
 0.57271922
 0.57314983
 0.57356634
 0.57395996
 0.57432199
 0.57464456
 0.57492112
 0.57514623
 0.57531493
 0.57542236
 0.57546430
 0.57543828
 0.57534472
 0.57518702
 0.57497084
 0.57470286
 0.57438997
 0.57403874
 0.57365497
 0.57324292
 0.57280455
 0.57233915
 0.57184402
 0.57131606
 0.57075309
 0.57015434
 0.56951999
 0.56885071
 0.56814776
 0.56741361
 0.56665241
 0.56587000
 0.56507343
 0.56427054
 0.56346960
 0.56267881
 0.56190538
 0.56115417
 0.56042670
 0.55972122
 0.55903409
 0.55836138
 0.55769998
 0.55704781
 0.55640387
 0.55576850
 0.55514405
 0.55453534
 0.55394913
 0.55339264
 0.55287162
 0.55238910
 0.55194521
 0.55153754
 0.55116133
 0.55080929
 0.55047175
 0.55013773
 0.54979691
 0.54944170
 0.54906862
 0.54867812
 0.54827371
 0.54786107
 0.54744788
 0.54704377
 0.54665963
 0.54630597
 0.54599114
 0.54572006
 0.54549393
 0.54531071
 0.54516580
 0.54505257
 0.54496296
 0.54488840
 0.54482130
 0.54475663
 0.54469273
 0.54463106
 0.54457503
 0.54452849
 0.54449403
 0.54447116
 0.54445438
 0.54443130
 0.54438141
 0.54427615
 0.54408075
 0.54375776
 0.54327172
 0.54259476
 0.54171338
 0.54063681
 0.53940646
 0.53810451
 0.53685959
 0.53584797
 0.53528994
 0.53544094
 0.53657678
 0.53897193
 0.54287034
 0.54844993
 0.55578418
 0.56480561
 0.57527655
 0.58677315
 0.59868883
 0.61026485
 0.62065287
 0.62900549
 0.63457515
 0.63679156
 0.63529469
 0.62992300
 0.62067617
 0.60767402
 0.59112423
 0.57130123
 0.54853271
 0.52318933
 0.49567416
 0.46641059
 0.43582904
 0.40435349
 0.37238973
 0.34031804
 0.30849274
 0.27724839
 0.24690867
 0.21779186
 0.19020723
 0.16444131
 0.14073821
 0.11928116
 0.10018157
 0.08347807
 0.06914465
 0.05710599
 0.04725862
 0.03949649
 0.03373822
 0.02995220
 0.02817563
 0.02852426
 0.03119088
 0.03643205
 0.04454403
 0.05582969
 0.07055941
 0.08893038
 0.11102982
 0.13680779
 0.16606330
 0.19844488
 0.23346482
 0.27052459
 0.30894867
 0.34802324
 0.38703562
 0.42531015
 0.46223692
 0.49729180
 0.53004856
 0.56018546
 0.58748819
 0.61184961
 0.63326606
 0.65182950
 0.66771561
 0.68116831
 0.69248173
 0.70198071
 0.71000118
 0.71687190
 0.72289945
 0.72835734
 0.73347935
 0.73845653
 0.74343738
 0.74853044
 0.75380874
 0.75931557
 0.76507112
 0.77107867
 0.77732943
 0.78380525
 0.79047995
 0.79732060
 0.80428940
 0.81134615
 0.81844992
 0.82555989
 0.83263531
 0.83963550
 0.84652013
 0.85324932
 0.85978307
 0.86608025
 0.87209774
 0.87779068
 0.88311338
 0.88802028
 0.89246603
 0.89640509
 0.89979109
 0.90257650
 0.90471278
 0.90615082
 0.90684162
 0.90673745
 0.90579358
 0.90397087
 0.90123861
 0.89757704
 0.89297912
 0.88745137
 0.88101434
 0.87370291
 0.86556638
 0.85666801
 0.84708345
 0.83689791
 0.82620268
 0.81509184
 0.80365991
 0.79200018
 0.78020334
 0.76835572
 0.75653733
 0.74482058
 0.73327013
 0.72194348
 0.71089162
 0.70015951
 0.68978632
 0.67980598
 0.67024810
 0.66113883
 0.65250098
 0.64435345
 0.63671017
 0.62957961
 0.62296488
 0.61686415
 0.61127081
 0.60617325
 0.60155490
 0.59739487
 0.59366929
 0.59035271
 0.58741894
 0.58484147
 0.58259372
 0.58064944
 0.57898325
 0.57757106
 0.57638995
 0.57541792
 0.57463344
 0.57401544
 0.57354396
 0.57320094
 0.57297043
 0.57283802
 0.57279015
 0.57281396
 0.57289797
 0.57303280
 0.57321128
 0.57342761
 0.57367609
 0.57395002
 0.57424123
 0.57454031
 0.57483674
 0.57511909
 0.57537556
 0.57559547
 0.57577107
 0.57589888
 0.57597962
 0.57601657
 0.57601320
 0.57597126
 0.57589027
 0.57576789
 0.57560037
 0.57538256
 0.57510791
 0.57476902
 0.57435914
 0.57387383
 0.57331188
 0.57267513
 0.57196765
 0.57119538
 0.57036642
 0.56949133
 0.56858290
 0.56765489
 0.56672044
 0.56579102
 0.56487649
 0.56398548
 0.56312549
 0.56230208
 0.56151772
 0.56077109
 0.56005743
 0.55937003
 0.55870186
 0.55804674
 0.55739970
 0.55675708
 0.55611655
 0.55547733
 0.55484023
 0.55420742
 0.55358214
 0.55296865
 0.55237227
 0.55179930
 0.55125589
 0.55074638
 0.55027170
 0.54982896
 0.54941273
 0.54901726
 0.54863828
 0.54827341
 0.54792151
 0.54758181
 0.54725360
 0.54693615
 0.54662840
 0.54632849
 0.54603365
 0.54574109
 0.54544929
 0.54515903
 0.54487326
 0.54459581
 0.54432971
 0.54407631
 0.54383543
 0.54360626
 0.54338814
 0.54318081
 0.54298452
 0.54280021
 0.54263009
 0.54247820
 0.54235052
 0.54225411
 0.54219587
 0.54218152
 0.54221541
 0.54230026
 0.54243608
 0.54261805
 0.54283432
 0.54306467
 0.54328049
 0.54344567
 0.54351821
 0.54345235
 0.54320199
 0.54272600
 0.54199545
 0.54100191
 0.53976584
 0.53834433
 0.53683808
 0.53539677
 0.53422129
 0.53356061
 0.53370165
 0.53495140
 0.53761109
 0.54194353
 0.54813503
 0.55625452
 0.56621356
 0.57773342
 0.59032708
 0.60330508
 0.61581347
 0.62690744
 0.63565439
 0.64124507
 0.64308046
 0.64080866
 0.63430901
 0.62364383
 0.60900363
 0.59066255
 0.56894926
 0.54423109
 0.51690755
 0.48740828
 0.45619092
 0.42373534
 0.39053359
 0.35707694
 0.32384280
 0.29128381
 0.25981940
 0.22982884
 0.20164363
 0.17553791
 0.15171766
 0.13031154
 0.11136708
 0.09485422
 0.08067556
 0.06868207
 0.05869321
 0.05052055
 0.04399318
 0.03898268
 0.03542495
 0.03333699
 0.03282622
 0.03409047
 0.03740697
 0.04311047
 0.05156223
 0.06311366
 0.07806839
 0.09664620
 0.11895204
 0.14495315
 0.17446687
 0.20716088
 0.24256577
 0.28009822
 0.31909137
 0.35882882
 0.39857965
 0.43763237
 0.47532574
 0.51107454
 0.54438898
 0.57488849
 0.60231050
 0.62651482
 0.64748351
 0.66531485
 0.68021062
 0.69245646
 0.70239714
 0.71040968
 0.71687783
 0.72216997
 0.72662202
 0.73052564
 0.73412196
 0.73760044
 0.74110215
 0.74472577
 0.74853468
 0.75256401
 0.75682712
 0.76132180
 0.76603617
 0.77095343
 0.77605515
 0.78132269
 0.78673776
 0.79228240
 0.79793890
 0.80368942
 0.80951528
 0.81539623
 0.82130976
 0.82723100
 0.83313308
 0.83898755
 0.84476436
 0.85043137
 0.85595351
 0.86129223
 0.86640557
 0.87124882
 0.87577550
 0.87993811
 0.88368868
 0.88697934
 0.88976334
 0.89199591
 0.89363455
 0.89463855
 0.89496818
 0.89458452
 0.89345051
 0.89153349
 0.88880768
 0.88525582
 0.88086956
 0.87564954
 0.86960584
 0.86275884
 0.85513969
 0.84679015
 0.83776179
 0.82811545
 0.81792144
 0.80725978
 0.79621963
 0.78489714
 0.77339227
 0.76180551
 0.75023496
 0.73877352
 0.72750609
 0.71650707
 0.70583886
 0.69555205
 0.68568707
 0.67627626
 0.66734530
 0.65891341
 0.65099315
 0.64359030
 0.63670443
 0.63032995
 0.62445693
 0.61907148
 0.61415587
 0.60968893
 0.60564705
 0.60200563
 0.59874007
 0.59582629
 0.59324076
 0.59096053
 0.58896360
 0.58722936
 0.58573848
 0.58447231
 0.58341191
 0.58253744
 0.58182822
 0.58126340
 0.58082256
 0.58048595
 0.58023454
 0.58005055
 0.57991886
 0.57982848
 0.57977313
 0.57975003
 0.57975772
 0.57979400
 0.57985505
 0.57993545
 0.58002841
 0.58012570
 0.58021750
 0.58029289
 0.58034103
 0.58035256
 0.58032036
 0.58023974
 0.58010808
 0.57992478
 0.57969147
 0.57941241
 0.57909425
 0.57874502
 0.57837276
 0.57798452
 0.57758601
 0.57718156
 0.57677383
 0.57636302
 0.57594631
 0.57551827
 0.57507205
 0.57460087
 0.57409892
 0.57356175
 0.57298628
 0.57237080
 0.57171512
 0.57102062
 0.57028998
 0.56952652
 0.56873385
 0.56791619
 0.56707938
 0.56623133
 0.56538132
 0.56453834
 0.56370932
 0.56289842
 0.56210744
 0.56133691
 0.56058687
 0.55985688
 0.55914575
 0.55845184
 0.55777413
 0.55711336
 0.55647236
 0.55585539
 0.55526712
 0.55471200
 0.55419406
 0.55371671
 0.55328186
 0.55288885
 0.55253371
 0.55220918
 0.55190597
 0.55161451
 0.55132655
 0.55103573
 0.55073764
 0.55042993
 0.55011263
 0.54978828
 0.54946132
 0.54913685
 0.54881946
 0.54851284
 0.54822022
 0.54794489
 0.54769005
 0.54745787
 0.54724843
 0.54705938
 0.54688640
 0.54672425
 0.54656782
 0.54641243
 0.54625383
 0.54608848
 0.54591430
 0.54573153
 0.54554291
 0.54535322
 0.54516870
 0.54499686
 0.54484694
 0.54473020
 0.54465907
 0.54464476
 0.54469409
 0.54480648
 0.54497211
 0.54517122
 0.54537406
 0.54554148
 0.54562675
 0.54557904
 0.54534881
 0.54489393
 0.54418605
 0.54321669
 0.54200394
 0.54059994
 0.53909871
 0.53764212
 0.53642212
 0.53567750
 0.53568467
 0.53674213
 0.53914826
 0.54317219
 0.54901825
 0.55678629
 0.56643201
 0.57773298
 0.59026684
 0.60340946
 0.61636111
 0.62820682
 0.63800880
 0.64491470
 0.64825078
 0.64757102
 0.64265377
 0.63346247
 0.62009690
 0.60275389
 0.58170356
 0.55727854
 0.52986976
 0.49992317
 0.46793345
 0.43443300
 0.39997616
 0.36512065
 0.33040939
 0.29635624
 0.26343644
 0.23207975
 0.20266264
 0.17549683
 0.15081531
 0.12876020
 0.10937781
 0.09262347
 0.07837549
 0.06645532
 0.05665156
 0.04874617
 0.04254175
 0.03788773
 0.03470306
 0.03299256
 0.03285451
 0.03447845
 0.03813275
 0.04414297
 0.05286248
 0.06463756
 0.07976980
 0.09847990
 0.12087693
 0.14693642
 0.17648886
 0.20921881
 0.24467477
 0.28228915
 0.32140718
 0.36132200
 0.40131234
 0.44067808
 0.47877018
 0.51501345
 0.54892285
 0.58011523
 0.60831747
 0.63337122
 0.65523322
 0.67397014
 0.68974728
 0.70281143
 0.71346939
 0.72206408
 0.72895054
 0.73447445
 0.73895536
 0.74267608
 0.74587795
 0.74876029
 0.75148259
 0.75416846
 0.75691107
 0.75977948
 0.76282522
 0.76608767
 0.76959774
 0.77337934
 0.77744932
 0.78181670
 0.78648194
 0.79143616
 0.79666033
 0.80212438
 0.80778728
 0.81359874
 0.81950293
 0.82544316
 0.83136585
 0.83722262
 0.84297065
 0.84857206
 0.85399306
 0.85920288
 0.86417239
 0.86887231
 0.87327151
 0.87733606
 0.88102907
 0.88431132
 0.88714178
 0.88947806
 0.89127674
 0.89249443
 0.89308934
 0.89302309
 0.89226196
 0.89077764
 0.88854766
 0.88555642
 0.88179689
 0.87727224
 0.87199643
 0.86599355
 0.85929611
 0.85194344
 0.84398047
 0.83545690
 0.82642641
 0.81694555
 0.80707283
 0.79686824
 0.78639342
 0.77571194
 0.76488900
 0.75399048
 0.74308178
 0.73222697
 0.72148870
 0.71092814
 0.70060455
 0.69057434
 0.68089005
 0.67159971
 0.66274630
 0.65436694
 0.64649137
 0.63913990
 0.63232191
 0.62603594
 0.62027131
 0.61501071
 0.61023238
 0.60591164
 0.60202161
 0.59853410
 0.59542079
 0.59265424
 0.59020843
 0.58805843
 0.58617955
 0.58454683
 0.58313523
 0.58192059
 0.58088032
 0.57999357
 0.57924118
 0.57860572
 0.57807187
 0.57762686
 0.57726060
 0.57696524
 0.57673450
 0.57656322
 0.57644736
 0.57638405
 0.57637098
 0.57640529
 0.57648249
 0.57659636
 0.57673967
 0.57690500
 0.57708501
 0.57727200
 0.57745764
 0.57763329
 0.57779094
 0.57792438
 0.57802967
 0.57810470
 0.57814811
 0.57815841
 0.57813375
 0.57807209
 0.57797117
 0.57782809
 0.57763888
 0.57739875
 0.57710296
 0.57674772
 0.57633065
 0.57585083
 0.57530903
 0.57470813
 0.57405381
 0.57335453
 0.57262079
 0.57186347
 0.57109214
 0.57031396
 0.56953356
 0.56875350
 0.56797453
 0.56719572
 0.56641481
 0.56562910
 0.56483682
 0.56403809
 0.56323508
 0.56243118
 0.56163012
 0.56083553
 0.56005102
 0.55928036
 0.55852727
 0.55779480
 0.55708478
 0.55639804
 0.55573519
 0.55509729
 0.55448566
 0.55390089
 0.55334169
 0.55280475
 0.55228562
 0.55178028
 0.55128604
 0.55080160
 0.55032668
 0.54986174
 0.54940816
 0.54896816
 0.54854422
 0.54813801
 0.54774955
 0.54737700
 0.54701718
 0.54666626
 0.54632022
 0.54597495
 0.54562645
 0.54527144
 0.54490835
 0.54453831
 0.54416539
 0.54379590
 0.54343715
 0.54309640
 0.54278029
 0.54249450
 0.54224313
 0.54202790
 0.54184757
 0.54169831
 0.54157486
 0.54147196
 0.54138524
 0.54131122
 0.54124705
 0.54119022
 0.54113874
 0.54109151
 0.54104888
 0.54101267
 0.54098594
 0.54097264
 0.54097743
 0.54100527
 0.54106010
 0.54114228
 0.54124559
 0.54135538
 0.54144837
 0.54149399
 0.54145670
 0.54129887
 0.54098444
 0.54048362
 0.53977864
 0.53887035
 0.53778481
 0.53657917
 0.53534635
 0.53421827
 0.53336674
 0.53300055
 0.53335706
 0.53468708
 0.53723354
 0.54120453
 0.54674213
 0.55388861
 0.56255290
 0.57248245
 0.58324767
 0.59424691
 0.60473943
 0.61390942
 0.62095461
 0.62517977
 0.62606751
 0.62330708
 0.61678237
 0.60653659
 0.59273252
 0.57561892
 0.55550618
 0.53274987
 0.50773945
 0.48088841
 0.45262319
 0.42336943
 0.39353699
 0.36350717
 0.33362595
 0.30420494
 0.27552791
 0.24785896
 0.22144730
 0.19652594
 0.17330352
 0.15195214
 0.13259524
 0.11529928
 0.10007074
 0.08685846
 0.07556055
 0.06603533
 0.05811615
 0.05162986
 0.04641777
 0.04235727
 0.03938170
 0.03749580
 0.03678489
 0.03741666
 0.03963549
 0.04374917
 0.05010839
 0.05907950
 0.07101233
 0.08620557
 0.10487367
 0.12711862
 0.15290936
 0.18207049
 0.21428121
 0.24908501
 0.28591038
 0.32410103
 0.36295307
 0.40175433
 0.43982093
 0.47652721
 0.51132804
 0.54377459
 0.57352492
 0.60035001
 0.62413516
 0.64487662
 0.66267348
 0.67771528
 0.69026518
 0.70063914
 0.70918231
 0.71624517
 0.72216243
 0.72723743
 0.73173277
 0.73586640
 0.73981154
 0.74369903
 0.74762138
 0.75163822
 0.75578271
 0.76006801
 0.76449308
 0.76904751
 0.77371591
 0.77848195
 0.78333150
 0.78825437
 0.79324423
 0.79829757
 0.80341236
 0.80858723
 0.81382095
 0.81911210
 0.82445837
 0.82985541
 0.83529583
 0.84076889
 0.84626089
 0.85175543
 0.85723333
 0.86267194
 0.86804450
 0.87331957
 0.87846072
 0.88342655
 0.88817093
 0.89264361
 0.89679151
 0.90056049
 0.90389765
 0.90675306
 0.90908036
 0.91083619
 0.91197926
 0.91247051
 0.91227434
 0.91136023
 0.90970358
 0.90728522
 0.90409063
 0.90010967
 0.89533744
 0.88977571
 0.88343388
 0.87632952
 0.86848887
 0.85994782
 0.85075339
 0.84096474
 0.83065326
 0.81990123
 0.80879963
 0.79744569
 0.78594032
 0.77438508
 0.76287816
 0.75151002
 0.74035982
 0.72949347
 0.71896326
 0.70880830
 0.69905492
 0.68971730
 0.68079856
 0.67229308
 0.66418975
 0.65647546
 0.64913767
 0.64216563
 0.63555076
 0.62928683
 0.62337028
 0.61779987
 0.61257564
 0.60769735
 0.60316289
 0.59896757
 0.59510443
 0.59156510
 0.58834026
 0.58541941
 0.58279040
 0.58043926
 0.57835072
 0.57650895
 0.57489776
 0.57350031
 0.57229880
 0.57127465
 0.57040914
 0.56968413
 0.56908237
 0.56858771
 0.56818540
 0.56786280
 0.56761005
 0.56742028
 0.56728904
 0.56721316
 0.56718960
 0.56721469
 0.56728411
 0.56739334
 0.56753815
 0.56771468
 0.56791889
 0.56814622
 0.56839153
 0.56864916
 0.56891274
 0.56917468
 0.56942589
 0.56965608
 0.56985446
 0.57001050
 0.57011446
 0.57015784
 0.57013397
 0.57003892
 0.56987232
 0.56963753
 0.56934068
 0.56898882
 0.56858825
 0.56814381
 0.56765936
 0.56713852
 0.56658474
 0.56600104
 0.56539003
 0.56475476
 0.56410001
 0.56343307
 0.56276324
 0.56210004
 0.56145137
 0.56082254
 0.56021629
 0.55963320
 0.55907145
 0.55852620
 0.55798953
 0.55745136
 0.55690159
 0.55633226
 0.55573899
 0.55512125
 0.55448163
 0.55382509
 0.55315859
 0.55249110
 0.55183307
 0.55119508
 0.55058631
 0.55001359
 0.54948150
 0.54899269
 0.54854799
 0.54814582
 0.54778160
 0.54744779
 0.54713474
 0.54683205
 0.54652980
 0.54621957
 0.54589530
 0.54555411
 0.54519679
 0.54482781
 0.54445483
 0.54408767
 0.54373696
 0.54341299
 0.54312486
 0.54287981
 0.54268230
 0.54253305
 0.54242855
 0.54236155
 0.54232239
 0.54230034
 0.54228462
 0.54226514
 0.54223350
 0.54218429
 0.54211599
 0.54203087
 0.54193383
 0.54183070
 0.54172660
 0.54162506
 0.54152799
 0.54143630
 0.54135057
 0.54127156
 0.54120075
 0.54114111
 0.54109760
 0.54107715
 0.54108773
 0.54113684
 0.54122982
 0.54136835
 0.54154913
 0.54176258
 0.54199135
 0.54220910
 0.54238028
 0.54246204
 0.54240791
 0.54217254
 0.54171694
 0.54101405
 0.54005546
 0.53885917
 0.53747820
 0.53600841
 0.53459408
 0.53342948
 0.53275569
 0.53285166
 0.53401852
 0.53655607
 0.54073118
 0.54673980
 0.55466583
 0.56444177
 0.57581680
 0.58833862
 0.60135691
 0.61405637
 0.62552528
 0.63485558
 0.64125478
 0.64413673
 0.64316215
 0.63822317
 0.62939101
 0.61685523
 0.60087393
 0.58174155
 0.55977238
 0.53529506
 0.50865330
 0.48020830
 0.45033920
 0.41943929
 0.38790740
 0.35613701
 0.32450662
 0.29337491
 0.26308115
 0.23394776
 0.20628024
 0.18036091
 0.15643566
 0.13469737
 0.11527128
 0.09820659
 0.08347615
 0.07098327
 0.06057497
 0.05206062
 0.04523532
 0.03990551
 0.03591406
 0.03316183
 0.03162401
 0.03136013
 0.03251649
 0.03531994
 0.04006233
 0.04707648
 0.05670572
 0.06927006
 0.08503246
 0.10416823
 0.12674043
 0.15268319
 0.18179456
 0.21373986
 0.24806548
 0.28422215
 0.32159484
 0.35953616
 0.39739988
 0.43457163
 0.47049393
 0.50468428
 0.53674576
 0.56637179
 0.59334718
 0.61754737
 0.63893673
 0.65756526
 0.67356211
 0.68712510
 0.69850628
