 0.52426494
 0.52399356
 0.52370080
 0.52335249
 0.52291732
 0.52237024
 0.52169504
 0.52088586
 0.51994690
 0.51889034
 0.51773288
 0.51649301
 0.51519063
 0.51384921
 0.51249849
 0.51117506
 0.50991974
 0.50877306
 0.50777131
 0.50694490
 0.50631864
 0.50591195
 0.50573738
 0.50579768
 0.50608261
 0.50656677
 0.50720853
 0.50794941
 0.50871395
 0.50941215
 0.50994736
 0.51023045
 0.51019773
 0.50982879
 0.50916114
 0.50830117
 0.50743240
 0.50682177
 0.50682258
 0.50787063
 0.51047059
 0.51517100
 0.52252907
 0.53306904
 0.54723863
 0.56536872
 0.58763876
 0.61404720
 0.64438323
 0.67819691
 0.71476911
 0.75308849
 0.79184830
 0.82947624
 0.86420805
 0.89420691
 0.91772156
 0.93326619
 0.93979825
 0.93686568
 0.92469504
 0.90419762
 0.87688266
 0.84468447
 0.80973175
 0.77410401
 0.73962205
 0.70770443
 0.67930036
 0.65489160
 0.63454640
 0.61800568
 0.60478278
 0.59426133
 0.58578002
 0.57869829
 0.57244200
 0.56653247
 0.56060311
 0.55440683
 0.54781459
 0.54080485
 0.53344509
 0.52586846
 0.51824925
 0.51077956
 0.50364850
 0.49702385
 0.49103704
 0.48577297
 0.48126658
 0.47750688
 0.47444645
 0.47201311
 0.47012058
 0.46867679
 0.46759001
 0.46677354
 0.46614880
 0.46564660
 0.46520715
 0.46477968
 0.46432264
 0.46380435
 0.46320330
 0.46250726
 0.46171109
 0.46081391
 0.45981674
 0.45872146
 0.45753115
 0.45625085
 0.45488780
 0.45345094
 0.45195060
 0.45039820
 0.44880556
 0.44718296
 0.44553684
 0.44386771
 0.44216955
 0.44043047
 0.43863453
 0.43676407
 0.43480242
 0.43273725
 0.43056451
 0.42829253
 0.42594425
 0.42355637
 0.42117546
 0.41885323
 0.41664353
 0.41460176
 0.41278520
 0.41125156
 0.41005491
 0.40924108
 0.40884557
 0.40889489
 0.40940956
 0.41040566
 0.41189408
 0.41387864
 0.41635515
 0.41931236
 0.42273355
 0.42659682
 0.43087348
 0.43552570
 0.44050558
 0.44575638
 0.45121477
 0.45681229
 0.46247550
 0.46812556
 0.47367906
 0.47905074
 0.48415777
 0.48892423
 0.49328493
 0.49718777
 0.50059536
 0.50348650
 0.50585798
 0.50772537
 0.50912197
 0.51009564
 0.51070467
 0.51101325
 0.51108688
 0.51098769
 0.51077039
 0.51047940
 0.51014805
 0.50979938
 0.50944773
 0.50910049
 0.50875966
 0.50842360
 0.50808880
 0.50775118
 0.50740648
 0.50705025
 0.50667809
 0.50628682
 0.50587668
 0.50545351
 0.50502931
 0.50462018
 0.50424200
 0.50390621
 0.50361782
 0.50337578
 0.50317421
 0.50300289
 0.50284716
 0.50268902
 0.50251044
 0.50229863
 0.50205087
 0.50177593
 0.50149133
 0.50121780
 0.50097407
 0.50077405
 0.50062641
 0.50053539
 0.50050166
 0.50052301
 0.50059531
 0.50071394
 0.50087506
 0.50107604
 0.50131464
 0.50158763
 0.50188963
 0.50221297
 0.50254882
 0.50288840
 0.50322325
 0.50354461
 0.50384279
 0.50410754
 0.50432875
 0.50449738
 0.50460627
 0.50465130
 0.50463272
 0.50455590
 0.50443104
 0.50427110
 0.50408855
 0.50389237
 0.50368700
 0.50347339
 0.50325066
 0.50301675
 0.50276808
 0.50249984
 0.50220809
 0.50189275
 0.50156000
 0.50122233
 0.50089595
 0.50059710
 0.50033939
 0.50013306
 0.49998562
 0.49990199
 0.49988364
 0.49992726
 0.50002495
 0.50016668
 0.50034428
 0.50055413
 0.50079733
 0.50107746
 0.50139803
 0.50176100
 0.50216666
 0.50261395
 0.50310128
 0.50362752
 0.50419356
 0.50480386
 0.50546708
 0.50619502
 0.50699995
 0.50789166
 0.50887532
 0.50995003
 0.51110720
 0.51232734
 0.51357641
 0.51480448
 0.51594980
 0.51694756
 0.51773938
 0.51827963
 0.51853788
 0.51849909
 0.51816401
 0.51755031
 0.51669309
 0.51564254
 0.51445801
 0.51319992
 0.51192233
 0.51066806
 0.50946656
 0.50833364
 0.50727258
 0.50627697
 0.50533508
 0.50443504
 0.50356919
 0.50273586
 0.50193834
 0.50118256
 0.50047527
 0.49982378
 0.49923698
 0.49872642
 0.49830703
 0.49799759
 0.49782066
 0.49780118
 0.49796256
 0.49832043
 0.49887584
 0.49960994
 0.50048204
 0.50143143
 0.50238229
 0.50325004
 0.50394895
 0.50440184
 0.50455349
 0.50438704
 0.50394053
 0.50331976
 0.50270516
 0.50235279
 0.50259055
 0.50380981
 0.50645093
 0.51098103
 0.51786403
 0.52752643
 0.54032509
 0.55652292
 0.57627457
 0.59961844
 0.62646811
 0.65659729
 0.68961735
 0.72495111
 0.76180962
 0.79918008
 0.83583355
 0.87036024
 0.90123773
 0.92693269
 0.94602989
 0.95737526
 0.96021423
 0.95430400
 0.93997883
 0.91815095
 0.89023737
 0.85801630
 0.82343332
 0.78839199
 0.75456793
 0.72327595
 0.69540253
 0.67139945
 0.65132572
 0.63492229
 0.62170426
 0.61105673
 0.60232169
 0.59486725
 0.58813544
 0.58167031
 0.57513062
 0.56829092
 0.56103345
 0.55333309
 0.54523813
 0.53685035
 0.52830689
 0.51976434
 0.51138464
 0.50332207
 0.49571196
 0.48866245
 0.48225075
 0.47652360
 0.47149974
 0.46717191
 0.46350774
 0.46045139
 0.45792834
 0.45585381
 0.45414295
 0.45271901
 0.45151728
 0.45048479
 0.44957763
 0.44875829
 0.44799387
 0.44725496
 0.44651516
 0.44575140
 0.44494524
 0.44408423
 0.44316198
 0.44217600
 0.44112403
 0.44000117
 0.43879970
 0.43751191
 0.43613394
 0.43466834
 0.43312438
 0.43151656
 0.42986288
 0.42818307
 0.42649643
 0.42481839
 0.42315617
 0.42150532
 0.41984953
 0.41816468
 0.41642550
 0.41461162
 0.41271087
 0.41072021
 0.40864571
 0.40650234
 0.40431352
 0.40210994
 0.39992694
 0.39780097
 0.39576599
 0.39385098
 0.39207874
 0.39046516
 0.38901940
 0.38774570
 0.38664737
 0.38573152
 0.38501182
 0.38450752
 0.38424001
 0.38422970
 0.38449583
 0.38505863
 0.38594192
 0.38717381
 0.38878466
 0.39080324
 0.39325295
 0.39614972
 0.39950177
 0.40330973
 0.40756543
 0.41224948
 0.41732878
 0.42275525
 0.42846541
 0.43438044
 0.44040709
 0.44644063
 0.45237034
 0.45808755
 0.46349432
 0.46851073
 0.47307941
 0.47716735
 0.48076572
 0.48388736
 0.48656160
 0.48882690
 0.49072336
 0.49228783
 0.49355330
 0.49455175
 0.49531741
 0.49588744
 0.49629947
 0.49658821
 0.49678366
 0.49691157
 0.49699480
 0.49705365
 0.49710482
 0.49715999
 0.49722551
 0.49730327
 0.49739189
 0.49748756
 0.49758435
 0.49767453
 0.49774940
 0.49780067
 0.49782176
 0.49780821
 0.49775693
 0.49766529
 0.49753088
 0.49735225
 0.49712944
 0.49686354
 0.49655549
 0.49620535
 0.49581329
 0.49538203
 0.49491910
 0.49443691
 0.49395012
 0.49347198
 0.49301201
 0.49257605
 0.49216824
 0.49179316
 0.49145669
 0.49116519
 0.49092435
 0.49073842
 0.49061020
 0.49054067
 0.49052848
 0.49056974
 0.49065888
 0.49078999
 0.49095780
 0.49115774
 0.49138538
 0.49163646
 0.49190782
 0.49219867
 0.49251111
 0.49284887
 0.49321448
 0.49360658
 0.49401898
 0.49444239
 0.49486715
 0.49528472
 0.49568748
 0.49606777
 0.49641805
 0.49673223
 0.49700725
 0.49724362
 0.49744471
 0.49761530
 0.49776066
 0.49788616
 0.49799742
 0.49810019
 0.49819977
 0.49830008
 0.49840330
 0.49851003
 0.49861909
 0.49872650
 0.49882435
 0.49890139
 0.49894575
 0.49894885
 0.49890843
 0.49882925
 0.49872125
 0.49859620
 0.49846551
 0.49834028
 0.49823291
 0.49815719
 0.49812518
 0.49814223
 0.49820361
 0.49829532
 0.49839885
 0.49849687
 0.49857755
 0.49863713
 0.49868151
 0.49872700
 0.49879948
 0.49893122
 0.49915589
 0.49950344
 0.49999660
 0.50064938
 0.50146695
 0.50244540
 0.50357115
 0.50482082
 0.50616288
 0.50756115
 0.50897819
 0.51037674
 0.51171905
 0.51296609
 0.51407884
 0.51502164
 0.51576645
 0.51629553
 0.51660193
 0.51668817
 0.51656450
 0.51624737
 0.51575813
 0.51512185
 0.51436589
 0.51351876
 0.51260911
 0.51166480
 0.51071056
 0.50976441
 0.50883386
 0.50791426
 0.50699070
 0.50604386
 0.50505748
 0.50402463
 0.50295044
 0.50185124
 0.50075236
 0.49968637
 0.49869189
 0.49781153
 0.49708851
 0.49656247
 0.49626572
 0.49622045
 0.49643689
 0.49691221
 0.49763024
 0.49856212
 0.49966795
 0.50089852
 0.50219620
 0.50349513
 0.50472235
 0.50580173
 0.50666153
 0.50724416
 0.50751580
 0.50747442
 0.50715653
 0.50664386
 0.50607114
 0.50563371
 0.50559230
 0.50627161
 0.50805122
 0.51134917
 0.51660015
 0.52422999
 0.53462871
 0.54812408
 0.56495810
 0.58526864
 0.60907594
 0.63627096
 0.66660099
 0.69964980
 0.73481423
 0.77128351
 0.80803013
 0.84382128
 0.87725718
 0.90683994
 0.93107344
 0.94858987
 0.95829140
 0.95948707
 0.95200054
 0.93622648
 0.91312085
 0.88412147
 0.85100632
 0.81570838
 0.78011541
 0.74588722
 0.71431902
 0.68626857
 0.66214971
 0.64198132
 0.62547202
 0.61211885
 0.60130278
 0.59237075
 0.58469996
 0.57774394
 0.57106171
 0.56433177
 0.55735333
 0.55003768
 0.54239243
 0.53450100
 0.52649930
 0.51855222
 0.51083196
 0.50350055
 0.49669721
 0.49053088
 0.48507612
 0.48037110
 0.47641645
 0.47317658
 0.47058507
 0.46855430
 0.46698653
 0.46578347
 0.46485300
 0.46411355
 0.46349702
 0.46294987
 0.46243156
 0.46191032
 0.46135802
 0.46074726
 0.46005258
 0.45925510
 0.45834741
 0.45733521
 0.45623506
 0.45506945
 0.45386207
 0.45263490
 0.45140671
 0.45019161
 0.44899656
 0.44781898
 0.44664603
 0.44545677
 0.44422655
 0.44293162
 0.44155220
 0.44007365
 0.43848663
 0.43678711
 0.43497620
 0.43305916
 0.43104357
 0.42893762
 0.42674966
 0.42448894
 0.42216661
 0.41979608
 0.41739310
 0.41497630
 0.41256898
 0.41020087
 0.40790849
 0.40573286
 0.40371542
 0.40189423
 0.40030210
 0.39896712
 0.39791438
 0.39716759
 0.39674952
 0.39668183
 0.39698547
 0.39768263
 0.39879918
 0.40036482
 0.40240980
 0.40495901
 0.40802626
 0.41161040
 0.41569398
 0.42024335
 0.42520954
 0.43052977
 0.43612978
 0.44192722
 0.44783551
 0.45376761
 0.45963879
 0.46536839
 0.47088122
 0.47610937
 0.48099423
 0.48548803
 0.48955424
 0.49316773
 0.49631595
 0.49900098
 0.50124091
 0.50306857
 0.50452730
 0.50566537
 0.50653142
 0.50717264
 0.50763478
 0.50796208
 0.50819585
 0.50837174
 0.50851725
 0.50865109
 0.50878416
 0.50892110
 0.50906121
 0.50919884
 0.50932375
 0.50942227
 0.50947978
 0.50948386
 0.50942683
 0.50930687
 0.50912825
 0.50890116
 0.50864088
 0.50836547
 0.50809230
 0.50783476
 0.50760077
 0.50739344
 0.50721270
 0.50705612
 0.50691796
 0.50678774
 0.50665046
 0.50648951
 0.50629138
 0.50604999
 0.50576865
 0.50545946
 0.50514126
 0.50483730
 0.50457239
 0.50436885
 0.50424173
 0.50419507
 0.50422158
 0.50430560
 0.50442763
 0.50456825
 0.50471057
 0.50484197
 0.50495578
 0.50505301
 0.50514304
 0.50524190
 0.50536766
 0.50553491
 0.50575079
 0.50601410
 0.50631658
 0.50664467
 0.50698078
 0.50730473
 0.50759614
 0.50783771
 0.50801817
 0.50813397
 0.50818901
 0.50819322
 0.50816056
 0.50810728
 0.50804986
 0.50800221
 0.50797273
 0.50796275
 0.50796786
 0.50798133
 0.50799747
 0.50801317
 0.50802685
 0.50803674
 0.50804015
 0.50803484
 0.50802098
 0.50800192
 0.50798240
 0.50796545
 0.50795025
 0.50793248
 0.50790666
 0.50786873
 0.50781757
 0.50775530
 0.50768731
 0.50762240
 0.50757240
 0.50755026
 0.50756667
 0.50762676
 0.50772872
 0.50786505
 0.50802482
 0.50819534
 0.50836252
 0.50851150
 0.50862936
 0.50871008
 0.50875921
 0.50879506
 0.50884539
 0.50894138
 0.50911228
 0.50938220
 0.50976891
 0.51028348
 0.51093047
 0.51170869
 0.51261225
 0.51363138
 0.51475213
 0.51595469
 0.51721100
 0.51848346
 0.51972639
 0.52089012
 0.52192622
 0.52279132
 0.52344889
 0.52386968
 0.52403287
 0.52392857
 0.52356044
 0.52294617
 0.52211511
 0.52110412
 0.51995366
 0.51870504
 0.51739850
 0.51607109
 0.51475408
 0.51347059
 0.51223418
 0.51104956
 0.50991533
 0.50882790
 0.50778477
 0.50678632
 0.50583630
 0.50494219
 0.50411506
 0.50336866
 0.50271761
 0.50217559
 0.50175460
 0.50146524
 0.50131698
 0.50131730
 0.50146990
 0.50177343
 0.50222160
 0.50280452
 0.50350985
 0.50432229
 0.50522092
 0.50617592
 0.50714655
 0.50808211
 0.50892534
 0.50961763
 0.51010558
 0.51034935
 0.51033314
 0.51007692
 0.50964757
 0.50916715
 0.50881737
 0.50883995
 0.50953258
 0.51123985
 0.51433803
 0.51921399
 0.52624054
 0.53575301
 0.54803175
 0.56329212
 0.58167870
 0.60325692
 0.62799580
 0.65573919
 0.68616758
 0.71875666
 0.75274177
 0.78709961
 0.82055986
 0.85165672
 0.87882448
 0.90053178
 0.91544001
 0.92256336
 0.92140458
 0.91204108
 0.89514237
 0.87190962
 0.84394178
 0.81304812
 0.78104075
 0.74954645
 0.71986920
 0.69291828
 0.66919871
 0.64884981
 0.63171416
 0.61742099
 0.60547156
 0.59531731
 0.58642388
 0.57831710
 0.57061092
 0.56302076
 0.55536610
 0.54756514
 0.53962239
 0.53160989
 0.52364410
 0.51586309
 0.50840841
 0.50141239
 0.49498860
 0.48922377
 0.48417129
 0.47984812
 0.47623566
 0.47328432
 0.47092013
 0.46905233
 0.46758106
 0.46640523
 0.46542991
 0.46457214
 0.46376427
 0.46295509
 0.46210953
 0.46120814
 0.46024646
 0.45923367
 0.45818929
 0.45713770
 0.45610157
 0.45509645
 0.45412836
 0.45319395
 0.45228160
 0.45137199
 0.45043885
 0.44945167
 0.44838114
 0.44720559
 0.44591558
 0.44451486
 0.44301804
 0.44144642
 0.43982390
 0.43817379
 0.43651640
 0.43486691
 0.43323312
 0.43161396
 0.42999953
 0.42837305
 0.42671428
 0.42500319
 0.42322346
 0.42136576
 0.41943085
 0.41743173
 0.41539364
 0.41335191
 0.41134840
 0.40942831
 0.40763814
 0.40602446
 0.40463250
 0.40350447
 0.40267847
 0.40218889
 0.40206821
 0.40234816
 0.40305827
 0.40422194
 0.40585223
 0.40795018
 0.41050626
 0.41350334
 0.41691874
 0.42072426
 0.42488527
 0.42936045
 0.43410325
 0.43906445
 0.44419390
 0.44944043
 0.45475002
 0.46006389
 0.46531810
 0.47044531
 0.47537797
 0.48005197
 0.48441005
 0.48840508
 0.49200280
 0.49518356
 0.49794227
 0.50028696
 0.50223639
 0.50381766
 0.50506379
 0.50601142
 0.50669818
 0.50716042
 0.50743202
 0.50754527
 0.50753267
 0.50742805
 0.50726534
 0.50707531
 0.50688197
 0.50670105
 0.50654075
 0.50640401
 0.50629017
 0.50619529
 0.50611204
 0.50603057
 0.50594106
 0.50583646
 0.50571410
 0.50557504
 0.50542204
 0.50525758
 0.50508297
 0.50489844
 0.50470335
 0.50449634
 0.50427584
 0.50404152
 0.50379657
 0.50354950
 0.50331373
 0.50310443
 0.50293408
 0.50280936
 0.50273071
 0.50269358
 0.50268972
 0.50270773
 0.50273350
 0.50275199
 0.50275042
 0.50272139
 0.50266421
 0.50258391
 0.50248876
 0.50238788
 0.50228951
 0.50220003
 0.50212315
 0.50205964
 0.50200763
 0.50196407
 0.50192718
 0.50189858
 0.50188391
 0.50189155
 0.50193071
 0.50201038
 0.50213924
 0.50232582
 0.50257721
 0.50289634
 0.50327934
 0.50371510
 0.50418729
 0.50467773
 0.50516912
 0.50564638
 0.50609675
 0.50650967
 0.50687703
 0.50719411
 0.50746036
 0.50767942
 0.50785815
 0.50800519
 0.50812929
 0.50823736
 0.50833237
 0.50841142
 0.50846520
 0.50847989
 0.50844162
 0.50834138
 0.50817809
 0.50795831
 0.50769354
 0.50739708
 0.50708203
 0.50676058
 0.50644371
 0.50614064
 0.50585815
 0.50560050
 0.50537014
 0.50516888
 0.50499886
 0.50486294
 0.50476435
 0.50470634
 0.50469186
 0.50472312
 0.50480062
 0.50492163
 0.50507948
 0.50526495
 0.50547002
 0.50569225
 0.50593737
 0.50621844
 0.50655194
 0.50695305
 0.50743269
 0.50799693
 0.50864758
 0.50938243
 0.51019475
 0.51107302
 0.51200177
 0.51296350
 0.51394036
 0.51491494
 0.51587017
 0.51678926
 0.51765642
 0.51845768
 0.51918073
 0.51981308
 0.52033977
 0.52074256
 0.52100234
 0.52110383
 0.52103999
 0.52081382
 0.52043768
 0.51993131
 0.51932004
 0.51863298
 0.51789999
 0.51714669
 0.51638899
 0.51562969
 0.51485940
 0.51406136
 0.51321807
 0.51231758
 0.51135797
 0.51034957
 0.50931498
 0.50828699
 0.50730474
 0.50640843
 0.50563415
 0.50501004
 0.50455448
 0.50427596
 0.50417416
 0.50424186
 0.50446753
 0.50483838
 0.50534278
 0.50597013
 0.50670656
 0.50752748
 0.50839042
 0.50923226
 0.50997293
 0.51052449
 0.51080269
 0.51073877
 0.51029117
 0.50945842
 0.50829404
 0.50692220
 0.50555166
 0.50448459
 0.50411742
 0.50493265
 0.50748107
 0.51235416
 0.52014636
 0.53140880
 0.54659919
 0.56603507
 0.58985583
 0.61799511
 0.65016078
 0.68581990
 0.72418881
 0.76423271
 0.80468157
 0.84406919
 0.88079932
 0.91323845
 0.93982964
 0.95921765
 0.97037222
 0.97269377
 0.96608712
 0.95099225
 0.92836602
 0.89961293
 0.86646589
 0.83082534
 0.79457609
 0.75941141
 0.72669528
 0.69738294
 0.67200389
 0.65069647
 0.63327603
 0.61931830
 0.60824391
 0.59939593
 0.59210663
 0.58575180
 0.57979152
 0.57379715
 0.56746536
 0.56062106
 0.55321068
 0.54528705
 0.53698713
 0.52850494
 0.52006305
 0.51188612
 0.50417891
 0.49710964
 0.49079898
 0.48531468
 0.48067184
 0.47683901
 0.47374870
 0.47130964
 0.46941773
 0.46796400
 0.46683998
 0.46594229
 0.46517743
 0.46446695
 0.46375138
 0.46299144
 0.46216622
 0.46126966
 0.46030699
 0.45929188
 0.45824360
 0.45718355
 0.45613092
 0.45509867
 0.45409080
 0.45310084
 0.45211191
 0.45109835
 0.45002950
 0.44887517
 0.44761126
 0.44622409
 0.44471192
 0.44308391
 0.44135766
 0.43955749
 0.43771388
 0.43586306
 0.43404441
 0.43229524
 0.43064401
 0.42910443
 0.42767267
 0.42632800
 0.42503609
 0.42375359
 0.42243370
 0.42103276
 0.41951688
 0.41786709
 0.41608110
 0.41417160
 0.41216253
 0.41008580
 0.40797936
 0.40588610
 0.40385166
 0.40192104
 0.40013532
 0.39853060
 0.39713946
 0.39599341
 0.39512370
 0.39455989
 0.39432720
 0.39444467
 0.39492504
 0.39577573
 0.39700024
 0.39859913
 0.40057050
 0.40290978
 0.40560894
 0.40865505
 0.41202870
 0.41570296
 0.41964413
 0.42381465
 0.42817709
 0.43269750
 0.43734655
 0.44209819
 0.44692730
 0.45180799
 0.45671353
 0.46161703
 0.46649134
 0.47130780
 0.47603461
 0.48063566
 0.48507034
 0.48929422
 0.49326059
 0.49692250
 0.50023573
 0.50316270
 0.50567699
 0.50776725
 0.50943890
 0.51071345
 0.51162646
 0.51222528
 0.51256667
 0.51271315
 0.51272739
 0.51266536
 0.51257055
 0.51247156
 0.51238327
 0.51231067
 0.51225267
 0.51220433
 0.51215754
 0.51210165
 0.51202570
 0.51192160
 0.51178672
 0.51162446
 0.51144301
 0.51125342
 0.51106797
 0.51089837
 0.51075352
 0.51063707
 0.51054612
 0.51047227
 0.51040491
 0.51033511
 0.51025800
 0.51017273
 0.51008068
 0.50998384
 0.50988481
 0.50978784
 0.50969933
 0.50962663
 0.50957559
 0.50954829
 0.50954237
 0.50955197
 0.50956946
 0.50958688
 0.50959701
 0.50959462
 0.50957752
 0.50954670
 0.50950490
 0.50945455
 0.50939645
 0.50933045
 0.50925773
 0.50918316
 0.50911553
 0.50906519
 0.50904046
 0.50904524
 0.50907866
 0.50913650
 0.50921306
 0.50930242
 0.50939899
 0.50949809
 0.50959697
 0.50969589
 0.50979824
 0.50990953
 0.51003623
 0.51018546
 0.51036551
 0.51058613
 0.51085756
 0.51118814
 0.51158182
 0.51203698
 0.51254653
 0.51309854
 0.51367656
 0.51425957
 0.51482218
 0.51533647
 0.51577598
 0.51612070
 0.51636059
 0.51649608
 0.51653618
 0.51649598
 0.51639434
 0.51625191
 0.51608905
 0.51592396
 0.51577128
 0.51564209
 0.51554506
 0.51548826
 0.51548009
 0.51552876
 0.51564065
 0.51581894
 0.51606310
 0.51636903
 0.51672911
 0.51713212
 0.51756381
 0.51800937
 0.51845781
 0.51890662
 0.51936408
 0.51984749
 0.52037803
 0.52097455
 0.52164891
 0.52240400
 0.52323407
 0.52412556
 0.52505832
 0.52600741
 0.52694581
 0.52784712
 0.52868720
 0.52944410
 0.53009714
 0.53062640
 0.53101366
 0.53124432
 0.53130877
 0.53120221
 0.53092402
 0.53047786
 0.52987281
 0.52912418
 0.52825230
 0.52727868
 0.52622175
 0.52509465
 0.52390651
 0.52266560
 0.52138200
 0.52006819
 0.51873836
 0.51740822
 0.51609612
 0.51482478
 0.51362192
 0.51251891
 0.51154778
 0.51073806
 0.51011424
 0.50969418
 0.50948865
 0.50950135
 0.50972913
 0.51016199
 0.51078244
 0.51156420
 0.51247027
 0.51345077
 0.51444177
 0.51536640
 0.51613922
 0.51667393
 0.51689356
 0.51674269
 0.51620142
 0.51530091
 0.51413939
 0.51289586
 0.51183842
 0.51132547
 0.51179946
 0.51377284
 0.51780547
 0.52447194
 0.53431963
 0.54782143
 0.56533021
 0.58704068
 0.61295907
 0.64287531
 0.67633275
 0.71259746
 0.75063757
 0.78912729
 0.82648786
 0.86097054
 0.89077870
 0.91421941
 0.92986970
 0.93673794
 0.93439584
 0.92305574
 0.90357309
 0.87736585
 0.84625856
 0.81227574
 0.77742139
 0.74348307
 0.71188861
 0.68362805
 0.65923962
 0.63884928
 0.62224797
 0.60898780
 0.59847935
 0.59007735
 0.58314868
 0.57712202
 0.57152030
 0.56597811
 0.56024565
 0.55418205
 0.54774164
 0.54095663
 0.53391894
 0.52676206
 0.51964299
 0.51272467
 0.50616034
 0.50008150
 0.49459023
 0.48975518
 0.48560974
 0.48215175
 0.47934522
 0.47712542
 0.47540736
 0.47409610
 0.47309577
 0.47231561
 0.47167325
 0.47109738
 0.47053084
 0.46993303
 0.46927974
 0.46855995
 0.46777114
 0.46691551
 0.46599849
 0.46502908
 0.46401992
 0.46298587
 0.46194106
 0.46089579
 0.45985434
 0.45881404
 0.45776563
 0.45669451
 0.45558254
 0.45441010
 0.45315837
 0.45181173
 0.45035953
 0.44879684
 0.44712452
 0.44534938
 0.44348427
 0.44154736
 0.43955980
 0.43754276
 0.43551494
 0.43349181
 0.43148638
 0.42950973
 0.42757020
 0.42567167
 0.42381295
 0.42199034
 0.42020309
 0.41845954
 0.41678106
 0.41520233
 0.41376841
 0.41253063
 0.41154328
 0.41086141
 0.41053872
 0.41062418
 0.41115790
 0.41216844
 0.41367272
 0.41567800
 0.41818405
 0.42118396
 0.42466373
 0.42860167
 0.43296843
 0.43772717
 0.44283283
 0.44823044
 0.45385353
 0.45962438
 0.46545649
 0.47125851
 0.47693849
 0.48240789
 0.48758557
 0.49240226
 0.49680485
 0.50075934
 0.50425056
 0.50727898
 0.50985609
 0.51200090
 0.51373829
 0.51509885
 0.51611854
 0.51683714
 0.51729571
 0.51753435
 0.51759159
 0.51750499
 0.51731182
 0.51704834
 0.51674782
 0.51643836
 0.51614177
 0.51587365
 0.51564357
 0.51545501
 0.51530549
 0.51518772
 0.51509138
 0.51500516
 0.51491819
 0.51482057
 0.51470349
 0.51456016
 0.51438754
 0.51418798
 0.51396884
 0.51374016
 0.51351191
 0.51329276
 0.51309110
 0.51291678
 0.51278161
 0.51269748
 0.51267289
 0.51270975
 0.51280245
 0.51293922
 0.51310467
 0.51328198
 0.51345405
 0.51360408
 0.51371668
 0.51377979
 0.51378662
 0.51373662
 0.51363531
 0.51349396
 0.51332933
 0.51316263
 0.51301681
 0.51291291
 0.51286707
 0.51288964
 0.51298589
 0.51315701
 0.51340027
 0.51370850
 0.51406960
 0.51446751
 0.51488491
 0.51530655
 0.51572142
 0.51612260
 0.51650560
 0.51686696
 0.51720428
 0.51751701
 0.51780666
 0.51807512
 0.51832208
 0.51854309
 0.51872950
 0.51887021
 0.51895406
 0.51897180
 0.51891748
 0.51878963
 0.51859200
 0.51833340
 0.51802612
 0.51768348
 0.51731780
 0.51693984
 0.51655990
 0.51618909
 0.51583911
 0.51552061
 0.51524167
 0.51500781
 0.51482372
 0.51469514
 0.51462900
 0.51463146
 0.51470488
 0.51484628
 0.51504822
 0.51530177
 0.51559988
 0.51593949
 0.51632217
 0.51675398
 0.51724516
 0.51780972
 0.51846378
 0.51922237
 0.52009541
 0.52108461
 0.52218254
 0.52337395
 0.52463800
 0.52594989
 0.52728180
 0.52860405
 0.52988667
 0.53110067
 0.53221807
 0.53321106
 0.53405152
 0.53471184
 0.53516716
 0.53539805
 0.53539250
 0.53514657
 0.53466459
 0.53395962
 0.53305401
 0.53197845
 0.53076824
 0.52945742
 0.52807348
 0.52663523
 0.52515513
 0.52364445
 0.52211851
 0.52059920
 0.51911424
 0.51769456
 0.51637218
 0.51517908
 0.51414607
 0.51330019
 0.51266105
 0.51223763
 0.51202713
 0.51201646
 0.51218533
 0.51250922
 0.51296109
 0.51351164
 0.51412851
 0.51477475
 0.51540694
 0.51597398
 0.51641843
 0.51668218
 0.51671718
 0.51650010
 0.51604818
 0.51543404
 0.51479827
 0.51435930
 0.51441897
 0.51536096
 0.51763979
 0.52175926
 0.52824158
 0.53759016
 0.55024983
 0.56656820
 0.58676149
 0.61088655
 0.63881898
 0.67023553
 0.70459910
 0.74114794
 0.77889363
 0.81663523
 0.85299569
 0.88648334
 0.91557668
 0.93882745
 0.95497615
 0.96307213
 0.96258653
 0.95350146
 0.93635501
 0.91222389
 0.88263452
 0.84940788
 0.81446208
 0.77960926
 0.74638513
 0.71593750
 0.68898153
 0.66581393
 0.64637057
 0.63030982
 0.61710630
 0.60614203
 0.59678569
 0.58845454
 0.58065742
 0.57301988
 0.56529371
 0.55735348
 0.54918230
 0.54084994
 0.53248699
 0.52425919
 0.51634451
 0.50891318
 0.50211052
 0.49604340
 0.49077190
 0.48630798
 0.48262049
 0.47964478
 0.47729400
 0.47546932
 0.47406773
 0.47298793
 0.47213529
 0.47142574
 0.47078801
 0.47016382
 0.46950722
 0.46878481
 0.46797700
 0.46707911
 0.46610014
 0.46505847
 0.46397612
 0.46287377
 0.46176752
 0.46066699
 0.45957437
 0.45848449
 0.45738645
 0.45626678
 0.45511319
 0.45391767
 0.45267747
 0.45139395
 0.45007043
 0.44871103
 0.44732070
 0.44590539
 0.44447047
 0.44301751
 0.44154171
 0.44003218
 0.43847562
 0.43686109
 0.43518311
 0.43344186
 0.43164152
 0.42978886
 0.42789355
 0.42596958
 0.42403632
 0.42211804
 0.42024218
 0.41843808
 0.41673702
 0.41517342
 0.41378564
 0.41261514
 0.41170433
 0.41109453
 0.41082534
 0.41093541
 0.41146319
 0.41244573
 0.41391531
 0.41589466
 0.41839273
 0.42140194
 0.42489724
 0.42883675
 0.43316385
 0.43781095
 0.44270447
 0.44776942
 0.45293256
 0.45812393
 0.46327829
 0.46833682
 0.47324867
 0.47797105
 0.48246729
 0.48670390
 0.49064899
 0.49427333
 0.49755365
 0.50047583
 0.50303560
 0.50523600
 0.50708389
 0.50858810
 0.50976092
 0.51062132
 0.51119739
 0.51152588
 0.51164948
 0.51161343
 0.51146322
 0.51124323
 0.51099560
 0.51075843
 0.51056349
 0.51043436
 0.51038549
 0.51042203
 0.51053965
 0.51072460
 0.51095509
 0.51120445
 0.51144526
 0.51165275
 0.51180610
 0.51188835
 0.51188654
 0.51179276
 0.51160565
 0.51133060
 0.51097778
 0.51055874
 0.51008351
 0.50956000
 0.50899601
 0.50840225
 0.50779440
 0.50719242
 0.50661769
 0.50608974
 0.50562469
 0.50523546
 0.50493201
 0.50472006
 0.50459845
 0.50455742
 0.50457954
 0.50464309
 0.50472602
 0.50480889
 0.50487693
 0.50492182
 0.50494307
 0.50494780
 0.50494835
 0.50495834
 0.50498907
 0.50504766
 0.50513695
 0.50525560
 0.50539762
 0.50555162
 0.50570176
 0.50583148
 0.50592905
 0.50599218
 0.50602873
 0.50605307
 0.50608009
 0.50611997
 0.50617593
 0.50624500
 0.50632042
 0.50639409
 0.50645841
 0.50650798
 0.50654207
 0.50656725
 0.50659864
 0.50665855
 0.50677301
 0.50696760
 0.50726410
 0.50767830
 0.50821913
 0.50888897
 0.50968567
 0.51060621
 0.51165177
 0.51283272
 0.51417276
 0.51571178
 0.51750823
 0.51964159
 0.52221462
 0.52535401
 0.52920875
 0.53394576
 0.53974263
 0.54677811
 0.55522088
 0.56521669
 0.57687364
 0.59024611
 0.60531973
 0.62200033
 0.64010803
 0.65937437
 0.67943777
 0.69983375
 0.71997959
 0.73915831
 0.75650974
 0.77103585
 0.78162546
 0.78710156
 0.78629262
 0.77812657
 0.76174217
 0.73660872
 0.70264027
 0.66028744
 0.61058739
 0.55515228
 0.49608318
 0.43580960
 0.37687499
 0.32170383
 0.27239043
 0.23054061
 0.19718091
 0.17273578
 0.15706335
 0.14953674
 0.14915543
 0.15467055
 0.16470951
 0.17788919
 0.19291085
 0.20863249
 0.22411645
 0.23865251
 0.25176045
 0.26317807
 0.27284008
 0.28085169
 0.28745928
 0.29302012
 0.29797150
 0.30279786
 0.30799396
 0.31402442
 0.32128281
 0.33005543
 0.34049511
 0.35260809
 0.36625533
 0.38116721
 0.39697010
 0.41322253
 0.42945711
 0.44522324
 0.46012497
 0.47384940
 0.48618269
 0.49701382
 0.50632814
 0.51419398
 0.52074478
 0.52615895
 0.53063965
 0.53439636
 0.53762986
 0.54052102
 0.54322332
 0.54585918
 0.54852026
 0.55127161
 0.55415888
 0.55721689
 0.56047688
 0.56397031
 0.56772866
 0.57178043
 0.57614700
 0.58083905
 0.58585472
 0.59117976
 0.59678985
 0.60265384
 0.60873699
 0.61500347
 0.62141777
 0.62794565
 0.63455517
 0.64121861
 0.64791462
 0.65462958
 0.66135708
 0.66809524
 0.67484260
 0.68159386
 0.68833633
 0.69504744
 0.70169292
 0.70822577
 0.71458629
 0.72070396
 0.72650153
 0.73190043
 0.73682543
 0.74120745
 0.74498516
 0.74810678
 0.75053286
 0.75223860
 0.75321391
 0.75346038
 0.75298684
 0.75180613
 0.74993460
 0.74739383
 0.74421158
 0.74042030
 0.73605373
 0.73114370
 0.72571895
 0.71980522
 0.71342543
 0.70659903
 0.69934137
 0.69166513
 0.68358447
 0.67512139
 0.66631130
 0.65720590
 0.64787312
 0.63839526
 0.62886664
 0.61939039
 0.61007404
 0.60102355
 0.59233704
 0.58409948
 0.57637950
 0.56922834
 0.56267988
 0.55675073
 0.55143974
 0.54672813
 0.54258165
 0.53895508
 0.53579750
 0.53305669
 0.53068198
 0.52862618
 0.52684668
 0.52530585
 0.52397008
 0.52280766
 0.52178683
 0.52087540
 0.52004240
 0.51926013
 0.51850526
 0.51775846
 0.51700409
 0.51623129
 0.51543627
 0.51462427
 0.51380911
 0.51300968
 0.51224510
 0.51153121
 0.51087967
 0.51029906
 0.50979577
 0.50937337
 0.50903073
 0.50876068
 0.50855026
 0.50838271
 0.50823946
 0.50810140
 0.50794946
 0.50776592
 0.50753717
 0.50725737
 0.50693096
 0.50657206
 0.50620050
 0.50583656
 0.50549664
 0.50519143
 0.50492634
 0.50470351
 0.50452428
 0.50439094
 0.50430711
 0.50427656
 0.50430140
 0.50438059
 0.50450950
 0.50468073
 0.50488523
 0.50511246
 0.50534884
 0.50557579
 0.50576939
 0.50590321
 0.50595367
 0.50590549
 0.50575490
 0.50550978
 0.50518738
 0.50481117
 0.50440832
 0.50400752
 0.50363658
 0.50331900
 0.50307044
 0.50289664
 0.50279416
 0.50275347
 0.50276287
 0.50281106
 0.50288788
 0.50298400
 0.50309101
 0.50320215
 0.50331290
 0.50342004
 0.50351938
 0.50360360
 0.50366193
 0.50368206
 0.50365289
 0.50356713
 0.50342314
 0.50322614
 0.50298871
 0.50272988
 0.50247220
 0.50223701
 0.50203929
 0.50188447
 0.50176856
 0.50168096
 0.50160834
 0.50153772
 0.50145866
 0.50136504
 0.50125655
 0.50113901
 0.50102235
 0.50091669
 0.50082879
 0.50076105
 0.50071408
 0.50069059
 0.50069779
 0.50074663
 0.50084869
 0.50101286
 0.50124378
 0.50154178
 0.50190288
 0.50231755
 0.50276903
 0.50323310
 0.50368087
 0.50408376
 0.50441864
 0.50467065
 0.50483360
 0.50490918
 0.50490645
 0.50484192
 0.50473896
 0.50462599
 0.50453382
 0.50449358
 0.50453586
 0.50469042
 0.50498545
 0.50544537
 0.50608776
 0.50692003
 0.50793733
 0.50912224
 0.51044570
 0.51186914
 0.51334782
 0.51483591
 0.51629243
 0.51768603
 0.51899653
 0.52021259
 0.52132731
 0.52233422
 0.52322494
 0.52398840
 0.52461042
 0.52507338
 0.52535653
 0.52543775
 0.52529661
 0.52491764
 0.52429221
 0.52341897
 0.52230397
 0.52096224
 0.51942055
 0.51771973
 0.51591407
 0.51406684
 0.51224346
 0.51050583
 0.50890972
 0.50750404
 0.50632991
 0.50541818
 0.50478634
 0.50443651
 0.50435523
 0.50451506
 0.50487697
 0.50539222
 0.50600303
 0.50664259
 0.50723561
 0.50770070
 0.50795473
 0.50791924
 0.50752957
 0.50674699
 0.50557381
 0.50407008
 0.50236937
 0.50069174
 0.49935258
 0.49876637
 0.49944298
 0.50197328
 0.50700120
 0.51518165
 0.52712786
 0.54335421
 0.56422144
 0.58988890
 0.62027452
 0.65502206
 0.69347633
 0.73467075
 0.77733382
 0.81992128
 0.86067894
 0.89773759
 0.92923690
 0.95347008
 0.96903595
 0.97498038
 0.97090815
 0.95704877
 0.93426474
 0.90399437
 0.86812685
 0.82881695
 0.78826313
 0.74848804
 0.71116272
 0.67750181
 0.64823461
 0.62363771
 0.60360702
 0.58774777
 0.57546767
 0.56606437
 0.55880250
 0.55297707
 0.54796159
 0.54324099
 0.53843053
 0.53328215
 0.52767949
 0.52162223
 0.51520149
 0.50856983
 0.50191101
 0.49541356
 0.48925001
 0.48356180
 0.47844879
 0.47396378
 0.47011321
 0.46686520
 0.46416305
 0.46193986
 0.46012932
 0.45867022
 0.45750575
 0.45658128
 0.45584377
 0.45524366
 0.45473727
 0.45428782
 0.45386456
 0.45344148
 0.45299681
 0.45251300
 0.45197599
 0.45137329
 0.45069159
 0.44991627
 0.44903346
 0.44803401
 0.44691654
 0.44568817
 0.44436263
 0.44295726
 0.44149017
 0.43997808
 0.43843459
 0.43686865
 0.43528380
 0.43367842
 0.43204698
 0.43038110
 0.42867037
 0.42690305
 0.42506757
 0.42315521
 0.42116335
 0.41909742
 0.41697034
 0.41479997
 0.41260703
 0.41041512
 0.40825244
 0.40615335
 0.40415827
 0.40231198
 0.40066189
 0.39925748
 0.39815104
 0.39739798
 0.39705490
 0.39717518
 0.39780373
 0.39897339
 0.40070372
 0.40300152
 0.40586115
 0.40926356
 0.41317503
 0.41754784
 0.42232412
 0.42744155
 0.43283817
 0.43845452
 0.44423291
 0.45011572
 0.45604413
 0.46195798
 0.46779594
 0.47349529
 0.47899115
 0.48421672
 0.48910578
 0.49359733
 0.49764078
 0.50119967
 0.50425327
 0.50679676
 0.50884094
 0.51041151
 0.51154730
 0.51229724
 0.51271606
 0.51285973
 0.51278197
 0.51253212
 0.51215413
 0.51168573
 0.51115789
 0.51059548
 0.51001912
 0.50944724
 0.50889699
 0.50838348
 0.50791873
 0.50751174
 0.50716957
 0.50689843
 0.50670317
 0.50658526
 0.50654081
 0.50656032
 0.50663084
 0.50673926
 0.50687475
 0.50702901
 0.50719510
 0.50736688
 0.50754011
 0.50771403
 0.50789121
 0.50807502
 0.50826643
 0.50846272
 0.50865888
 0.50885037
 0.50903493
 0.50921237
 0.50938314
 0.50954768
 0.50970771
 0.50986863
 0.51004087
 0.51023899
 0.51047847
 0.51077166
 0.51112429
 0.51153356
 0.51198800
 0.51246859
 0.51295072
 0.51340668
 0.51380872
 0.51413219
 0.51435827
 0.51447555
 0.51448062
 0.51437833
 0.51418201
 0.51391287
 0.51359765
 0.51326406
 0.51293560
 0.51262793
 0.51234803
 0.51209520
 0.51186240
 0.51163720
 0.51140298
 0.51114159
 0.51083760
 0.51048259
 0.51007797
 0.50963519
 0.50917426
 0.50872188
 0.50831031
 0.50797632
 0.50775905
 0.50769618
 0.50781989
 0.50815428
 0.50871501
 0.50950974
 0.51053765
 0.51178757
 0.51323603
 0.51484706
 0.51657450
 0.51836598
 0.52016739
 0.52192635
 0.52359504
 0.52513293
 0.52650961
 0.52770681
 0.52871814
 0.52954609
 0.53019740
 0.53067882
 0.53099484
 0.53114725
 0.53113541
 0.53095629
 0.53060453
 0.53007352
 0.52935735
 0.52845301
 0.52736147
 0.52608776
 0.52464093
 0.52303526
 0.52129311
 0.51944762
 0.51754324
 0.51563291
 0.51377324
 0.51201966
 0.51042274
 0.50902540
 0.50786004
 0.50694528
 0.50628368
 0.50586225
 0.50565617
 0.50563437
 0.50576418
 0.50601331
 0.50634881
 0.50673486
 0.50713115
 0.50749271
 0.50777111
 0.50791661
 0.50788207
 0.50762914
 0.50713795
 0.50641954
 0.50552988
 0.50458324
 0.50376371
 0.50333281
 0.50363166
 0.50507507
 0.50813558
 0.51331724
 0.52112117
 0.53200769
 0.54635984
 0.56445113
 0.58641820
 0.61223676
 0.64169977
 0.67439781
 0.70970369
 0.74676442
 0.78450595
 0.82165706
 0.85679817
 0.88843680
 0.91510578
 0.93547542
 0.94846735
 0.95335786
 0.94985975
 0.93817332
 0.91899749
 0.89349139
 0.86318109
 0.82981613
 0.79519590
 0.76099634
 0.72862709
 0.69913892
 0.67318669
 0.65104217
 0.63264464
 0.61767507
 0.60563975
 0.59595095
 0.58799611
 0.58119111
 0.57501778
 0.56904823
 0.56295931
 0.55653850
 0.54968100
 0.54237813
 0.53469888
 0.52676841
 0.51874705
 0.51081176
 0.50313983
 0.49589423
 0.48921121
 0.48319133
 0.47789484
 0.47334118
 0.46951167
 0.46635457
 0.46379242
 0.46173126
 0.46007072
 0.45871302
 0.45756927
 0.45656288
 0.45563141
 0.45472811
 0.45382360
 0.45290628
 0.45197996
 0.45105828
 0.45015808
 0.44929423
 0.44847738
 0.44771335
 0.44700240
 0.44633763
 0.44570403
 0.44507949
 0.44443797
 0.44375357
 0.44300400
 0.44217224
 0.44124668
 0.44022092
 0.43909388
 0.43787021
 0.43656017
 0.43517867
 0.43374354
 0.43227375
 0.43078796
 0.42930302
 0.42783155
 0.42637871
 0.42493963
 0.42349977
 0.42203885
 0.42053664
 0.41897784
 0.41735383
 0.41566177
 0.41390312
 0.41208330
 0.41021279
 0.40830830
 0.40639312
 0.40449632
 0.40265160
 0.40089635
 0.39927100
 0.39781797
 0.39658015
 0.39559908
 0.39491356
 0.39455881
 0.39456577
 0.39495976
 0.39575829
 0.39696919
 0.39859093
 0.40061554
 0.40303223
 0.40582899
 0.40899142
 0.41249984
 0.41632720
 0.42043929
 0.42479673
 0.42935712
 0.43407578
 0.43890518
 0.44379430
 0.44868957
 0.45353773
 0.45828950
 0.46290233
 0.46734166
 0.47158081
 0.47560051
 0.47938755
 0.48293275
 0.48622847
 0.48926729
 0.49204275
 0.49455168
 0.49679623
 0.49878363
 0.50052362
 0.50202516
 0.50329527
 0.50434116
 0.50517390
 0.50581041
 0.50627194
 0.50658060
 0.50675686
 0.50681951
 0.50678753
 0.50668188
 0.50652558
 0.50634220
 0.50615371
 0.50597848
 0.50583000
 0.50571625
 0.50563970
 0.50559833
 0.50558758
 0.50560264
 0.50563980
 0.50569598
 0.50576653
 0.50584302
 0.50591301
 0.50596232
 0.50597864
 0.50595394
 0.50588460
 0.50576978
 0.50560979
 0.50540533
 0.50515778
 0.50486951
 0.50454353
 0.50418289
 0.50379097
 0.50337336
 0.50294044
 0.50250877
 0.50209979
 0.50173655
 0.50144034
 0.50122867
 0.50111427
 0.50110395
 0.50119689
 0.50138331
 0.50164597
 0.50196482
 0.50232266
 0.50270800
 0.50311359
 0.50353214
 0.50395269
 0.50435993
 0.50473633
 0.50506500
 0.50533186
 0.50552659
 0.50564312
 0.50568029
 0.50564294
 0.50554256
 0.50539661
 0.50522619
 0.50505296
 0.50489654
 0.50477323
 0.50469539
 0.50467062
 0.50470108
 0.50478381
 0.50491251
 0.50507964
 0.50527761
 0.50549812
 0.50573080
 0.50596294
 0.50618137
 0.50637584
 0.50654184
 0.50668133
 0.50680095
 0.50690928
 0.50701477
 0.50712553
 0.50725021
 0.50739889
 0.50758354
 0.50781856
 0.50812155
 0.50851328
 0.50901568
 0.50964762
 0.51042000
 0.51133239
 0.51237219
 0.51351591
 0.51473095
 0.51597740
 0.51721038
 0.51838424
 0.51945911
 0.52040836
 0.52122412
 0.52191824
 0.52251836
 0.52306106
 0.52358471
 0.52412305
 0.52469988
 0.52532507
 0.52599293
 0.52668392
 0.52736969
 0.52801965
 0.52860658
 0.52910942
 0.52951359
 0.52980978
 0.52999252
 0.53005840
 0.53000366
 0.52982098
 0.52949705
 0.52901307
 0.52834894
 0.52748993
 0.52643286
 0.52518989
 0.52378938
 0.52227464
 0.52070132
 0.51913340
 0.51763736
 0.51627513
 0.51509735
 0.51413861
 0.51341499
 0.51292373
 0.51264461
 0.51254263
 0.51257268
 0.51268623
 0.51283949
 0.51300075
 0.51315424
 0.51329893
 0.51344334
 0.51359899
 0.51377497
 0.51397410
 0.51419024
 0.51440647
 0.51459451
 0.51471646
 0.51472947
 0.51459337
 0.51427985
 0.51378221
 0.51312523
 0.51237556
 0.51165180
 0.51113218
 0.51105666
 0.51172122
 0.51346472
 0.51665083
 0.52164798
 0.52880928
 0.53845337
 0.55084718
 0.56619213
 0.58461421
 0.60615601
 0.63076675
 0.65828657
 0.68842461
 0.72073498
 0.75459730
 0.78920895
 0.82359417
 0.85663273
 0.88710864
 0.91377736
 0.93544793
 0.95107350
 0.95984006
 0.96124236
 0.95513848
 0.94177820
 0.92180271
 0.89621311
 0.86630555
 0.83357379
 0.79958604
 0.76585119
 0.73369438
 0.70416127
 0.67796313
 0.65546566
 0.63671619
 0.62149909
 0.60940760
 0.59992007
 0.59246962
 0.58649898
 0.58149713
 0.57701933
 0.57269581
 0.56823450
 0.56342135
 0.55811898
 0.55226317
 0.54585647
 0.53895940
 0.53167956
 0.52415926
 0.51656209
 0.50905949
 0.50181811
 0.49498886
 0.48869850
 0.48304359
 0.47808623
 0.47385144
 0.47032723
 0.46746832
 0.46520372
 0.46344655
 0.46210355
 0.46108181
 0.46029244
 0.45965277
 0.45908868
 0.45853761
 0.45795128
 0.45729697
 0.45655676
 0.45572542
 0.45480807
 0.45381837
 0.45277687
 0.45170860
 0.45063992
 0.44959534
 0.44859485
 0.44765194
 0.44677164
 0.44594854
 0.44516571
 0.44439579
 0.44360557
 0.44276278
 0.44184243
 0.44082988
 0.43972018
 0.43851571
 0.43722437
 0.43585871
 0.43443474
 0.43296907
 0.43147510
 0.42995984
 0.42842298
 0.42685847
 0.42525726
 0.42360976
 0.42190769
 0.42014547
 0.41832177
 0.41644019
 0.41450874
 0.41253817
 0.41054038
 0.40852855
 0.40651917
 0.40453465
 0.40260425
 0.40076222
 0.39904458
 0.39748696
 0.39612512
 0.39499730
 0.39414594
 0.39361667
 0.39345490
 0.39370212
 0.39439341
 0.39555660
 0.39721183
 0.39937133
 0.40203922
 0.40521148
 0.40887551
 0.41300867
 0.41757586
 0.42252723
 0.42779800
 0.43331146
 0.43898465
 0.44473487
 0.45048475
 0.45616468
 0.46171312
 0.46707632
 0.47220922
 0.47707738
 0.48165804
 0.48593897
 0.48991518
 0.49358558
 0.49695069
 0.50001145
 0.50276808
 0.50521845
 0.50735619
 0.50916988
 0.51064431
 0.51176431
 0.51252071
 0.51291750
 0.51297962
 0.51276120
 0.51235380
 0.51189361
 0.51156574
 0.51160491
 0.51229281
 0.51395248
 0.51693956
 0.52162871
 0.52839365
 0.53758038
 0.54947554
 0.56427385
 0.58204847
 0.60272637
 0.62606908
 0.65165847
 0.67888819
 0.70696316
 0.73490986
 0.76159907
 0.78578169
 0.80613738
 0.82133637
 0.83011454
 0.83136086
 0.82421256
 0.80814971
 0.78307699
 0.74937828
 0.70792976
 0.66006055
 0.60745830
 0.55202817
 0.49572609
 0.44039309
 0.38761600
 0.33863168
 0.29428150
 0.25501404
 0.22092749
 0.19184058
 0.16737962
 0.14706957
 0.13041765
 0.11698117
 0.10641479
 0.09849665
 0.09313447
 0.09035391
 0.09027099
 0.09305085
 0.09885627
 0.10779196
 0.11985249
 0.13488284
 0.15255861
 0.17239017
 0.19375155
 0.21593129
 0.23819794
 0.25986868
 0.28036925
 0.29927576
 0.31633521
 0.33146588
 0.34474197
 0.35636717
 0.36664062
 0.37591854
 0.38457381
 0.39295689
 0.40136282
 0.41000886
 0.41902550
 0.42845920
 0.43828282
 0.44841018
 0.45871291
 0.46903848
 0.47922776
 0.48912998
 0.49861408
 0.50757671
 0.51594767
 0.52369333
 0.53081737
 0.53735721
 0.54337564
 0.54895030
 0.55416457
 0.55910246
 0.56384641
 0.56847531
 0.57306101
 0.57766392
 0.58232951
 0.58708784
 0.59195615
 0.59694330
 0.60205392
 0.60729118
 0.61265826
 0.61815929
 0.62379958
 0.62958445
 0.63551621
 0.64159053
 0.64779484
 0.65411003
 0.66051436
 0.66698681
 0.67350776
 0.68005741
 0.68661448
 0.69315682
 0.69966368
 0.70611761
 0.71250431
 0.71881058
 0.72502148
 0.73111834
 0.73707876
 0.74287857
 0.74849518
 0.75391151
 0.75911953
 0.76412223
 0.76893274
 0.77357008
 0.77805255
 0.78239078
 0.78658351
 0.79061726
 0.79446906
 0.79810971
 0.80150609
 0.80462215
 0.80741976
 0.80986072
 0.81191020
 0.81354014
 0.81473089
 0.81547013
 0.81575022
 0.81556540
 0.81490961
 0.81377501
 0.81215130
 0.81002646
 0.80738920
 0.80423270
 0.80055834
 0.79637762
 0.79171142
 0.78658730
 0.78103680
 0.77509449
 0.76879861
 0.76219147
 0.75531834
 0.74822472
 0.74095355
 0.73354380
 0.72603007
 0.71844230
 0.71080477
 0.70313482
 0.69544207
 0.68772883
 0.67999140
 0.67222217
 0.66441251
 0.65655656
 0.64865554
 0.64072208
 0.63278338
 0.62488191
 0.61707279
 0.60941861
 0.60198376
 0.59483031
 0.58801566
 0.58159082
 0.57559798
 0.57006724
 0.56501388
 0.56043716
 0.55632047
 0.55263278
 0.54933103
 0.54636407
 0.54367810
 0.54122283
 0.53895623
 0.53684593
 0.53486705
 0.53299848
 0.53122044
 0.52951520
 0.52787040
 0.52628229
 0.52475600
 0.52330252
 0.52193416
 0.52066136
 0.51949125
 0.51842701
 0.51746690
 0.51660330
 0.51582313
 0.51511010
 0.51444788
 0.51382237
 0.51322231
 0.51263898
 0.51206613
 0.51150038
 0.51094156
 0.51039205
 0.50985482
 0.50933112
 0.50881891
 0.50831278
 0.50780533
 0.50728901
 0.50675735
 0.50620524
 0.50562913
 0.50502828
 0.50440631
 0.50377151
 0.50313471
 0.50250555
 0.50188969
 0.50128892
 0.50070397
 0.50013770
 0.49959636
 0.49908841
 0.49862252
 0.49820588
 0.49784334
 0.49753660
 0.49728342
 0.49707764
 0.49691053
 0.49677278
 0.49665545
 0.49654915
 0.49644169
 0.49631627
 0.49615225
 0.49592903
 0.49563119
 0.49525238
 0.49479632
 0.49427518
 0.49370682
 0.49311243
 0.49251497
 0.49193801
 0.49140405
 0.49093193
 0.49053432
 0.49021643
 0.48997602
 0.48980386
 0.48968409
 0.48959505
 0.48951178
 0.48941006
 0.48927073
 0.48908255
 0.48884244
 0.48855369
 0.48822373
 0.48786297
 0.48748490
 0.48710591
 0.48674393
 0.48641576
 0.48613465
 0.48590937
 0.48574455
 0.48564159
 0.48559870
 0.48561059
 0.48566846
 0.48576118
 0.48587685
 0.48600349
 0.48612874
 0.48623918
 0.48632128
 0.48636434
 0.48636412
 0.48632460
 0.48625659
 0.48617416
 0.48609081
 0.48601676
 0.48595782
 0.48591532
 0.48588621
 0.48586327
 0.48583608
 0.48579366
 0.48572839
 0.48563966
 0.48553534
 0.48543080
 0.48534597
 0.48530209
 0.48531813
 0.48540699
 0.48557205
 0.48580580
 0.48609177
 0.48640916
 0.48673807
 0.48706292
 0.48737282
 0.48765973
 0.48791647
 0.48813631
 0.48831395
 0.48844702
 0.48853672
 0.48858741
 0.48860583
 0.48860080
 0.48858363
 0.48856773
 0.48856685
 0.48859219
 0.48865027
 0.48874253
 0.48886610
 0.48901464
 0.48917880
 0.48934692
 0.48950682
 0.48964862
 0.48976722
 0.48986308
 0.48994059
 0.49000557
 0.49006377
 0.49012103
 0.49018426
 0.49026141
 0.49035973
 0.49048341
 0.49063221
 0.49080222
 0.49098796
 0.49118448
 0.49138821
 0.49159636
 0.49180562
 0.49201175
 0.49221064
 0.49239987
 0.49257928
 0.49275032
 0.49291528
 0.49307727
 0.49324102
 0.49341335
 0.49360238
 0.49381550
 0.49405750
 0.49432947
 0.49462846
 0.49494695
 0.49527200
 0.49558520
 0.49586469
 0.49608942
 0.49624426
 0.49632342
 0.49633103
 0.49627940
 0.49618706
 0.49607728
 0.49597642
 0.49591065
 0.49590122
 0.49595962
 0.49608532
 0.49626762
 0.49649057
 0.49673862
 0.49700034
 0.49727022
 0.49754944
 0.49784682
 0.49817947
 0.49857202
 0.49905350
 0.49965291
 0.50039443
 0.50129381
 0.50235640
 0.50357654
 0.50493770
 0.50641269
 0.50796532
 0.50955421
 0.51113799
 0.51267923
 0.51414558
 0.51550900
 0.51674530
 0.51783520
 0.51876586
 0.51953143
 0.52013189
 0.52057118
 0.52085655
 0.52099945
 0.52101647
 0.52092805
 0.52075387
 0.52050638
 0.52018587
 0.51977972
 0.51926628
 0.51862115
 0.51782344
 0.51686056
 0.51573139
 0.51444818
 0.51303754
 0.51154012
 0.51000854
 0.50850319
 0.50708666
 0.50581763
 0.50474505
 0.50390291
 0.50330651
 0.50295138
 0.50281589
 0.50286734
 0.50306878
 0.50338340
 0.50377473
 0.50420379
 0.50462613
 0.50499146
 0.50524616
 0.50533748
 0.50521779
 0.50484912
 0.50420907
 0.50329967
 0.50215839
 0.50086975
 0.49957529
 0.49848080
 0.49785980
 0.49805182
 0.49945464
 0.50250939
 0.50767858
 0.51541862
 0.52614998
 0.54022895
 0.55792329
 0.57939163
 0.60466375
 0.63361909
 0.66596326
 0.70120505
 0.73863890
 0.77733830
 0.81616659
 0.85381013
 0.88883605
 0.91977231
 0.94520382
 0.96387688
 0.97480319
 0.97735502
 0.97134225
 0.95706103
 0.93530250
 0.90731063
 0.87468426
 0.83922970
 0.80278451
 0.76704356
 0.73341759
 0.70294398
 0.67625442
 0.65359305
 0.63487222
 0.61975026
 0.60771604
 0.59816747
 0.59047671
 0.58404008
 0.57831502
 0.57284642
 0.56728362
 0.56138734
 0.55502600
 0.54816332
 0.54084059
 0.53315756
 0.52525393
 0.51729206
 0.50944111
 0.50186334
 0.49470312
 0.48807932
 0.48208048
 0.47676207
 0.47214502
 0.46821604
 0.46493095
 0.46222176
 0.46000662
 0.45819968
 0.45671827
 0.45548659
 0.45443762
 0.45351496
 0.45267485
 0.45188675
 0.45113096
 0.45039401
 0.44966419
 0.44892955
 0.44817854
 0.44740197
 0.44659468
 0.44575612
 0.44488997
 0.44400316
 0.44310413
 0.44220018
 0.44129445
 0.44038370
 0.43945850
 0.43850561
 0.43751126
 0.43646334
 0.43535213
 0.43417038
 0.43291355
 0.43158070
 0.43017517
 0.42870403
 0.42717587
 0.42559814
 0.42397559
 0.42231089
 0.42060616
 0.41886390
 0.41708603
 0.41527191
 0.41341751
 0.41151670
 0.40956440
 0.40756006
 0.40551009
 0.40342872
 0.40133799
 0.39926749
 0.39725427
 0.39534253
 0.39358279
 0.39203048
 0.39074451
 0.38978519
 0.38921150
 0.38907704
 0.38942562
 0.39028799
 0.39168165
 0.39361337
 0.39608264
 0.39908373
 0.40260508
 0.40662690
 0.41111926
 0.41604188
 0.42134527
 0.42697184
 0.43285633
 0.43892616
 0.44510321
 0.45130765
 0.45746295
 0.46349992
 0.46935803
 0.47498465
 0.48033381
 0.48536605
 0.49004908
 0.49435827
 0.49827613
 0.50179099
 0.50489627
 0.50759120
 0.50988266
 0.51178649
 0.51332692
 0.51453370
 0.51543851
 0.51607182
 0.51646137
 0.51663223
 0.51660810
 0.51641301
 0.51607279
 0.51561548
 0.51507063
 0.51446704
 0.51382957
 0.51317622
 0.51251739
 0.51185768
 0.51119949
 0.51054613
 0.50990311
 0.50927747
 0.50867697
 0.50810995
 0.50758585
 0.50711481
 0.50670588
 0.50636482
 0.50609341
 0.50589087
 0.50575625
 0.50568988
 0.50569244
 0.50576247
 0.50589416
 0.50607721
 0.50629882
 0.50654626
 0.50680808
 0.50707347
 0.50733052
 0.50756525
 0.50776245
 0.50790831
 0.50799354
 0.50801589
 0.50798134
 0.50790328
 0.50779983
 0.50768992
 0.50758948
 0.50750867
 0.50745087
 0.50741326
 0.50738851
 0.50736639
 0.50733491
 0.50728132
 0.50719400
 0.50706561
 0.50689583
 0.50669228
 0.50646928
 0.50624561
 0.50604245
 0.50588246
 0.50578970
 0.50578878
 0.50590208
 0.50614556
 0.50652553
 0.50703813
 0.50767187
 0.50841120
 0.50923909
 0.51013796
 0.51108990
 0.51207730
 0.51308406
 0.51409681
 0.51510564
 0.51610429
 0.51708982
 0.51806191
 0.51902167
 0.51996977
 0.52090379
 0.52181553
 0.52268936
 0.52350236
 0.52422638
 0.52483110
 0.52528775
 0.52557267
 0.52567056
 0.52557620
 0.52529385
 0.52483396
 0.52420820
 0.52342483
 0.52248733
 0.52139687
 0.52015737
 0.51877918
 0.51727928
 0.51567892
 0.51400190
 0.51227580
 0.51053502
 0.50882238
 0.50718660
 0.50567535
 0.50432712
 0.50316575
 0.50220003
 0.50142704
 0.50083645
 0.50041371
 0.50014217
 0.50000444
 0.49998227
 0.50005404
 0.50018997
 0.50034745
 0.50046917
 0.50048613
 0.50032535
 0.49992103
 0.49922773
 0.49823415
 0.49697651
 0.49555101
 0.49412439
 0.49294107
 0.49232498
 0.49267416
 0.49444777
 0.49814517
 0.50427706
 0.51332918
 0.52572164
 0.54176957
 0.56165093
 0.58538371
 0.61280837
 0.64356975
 0.67709562
 0.71257602
 0.74895260
 0.78492952
 0.81901528
 0.84960098
 0.87507380
 0.89395783
 0.90506728
 0.90765100
 0.90150409
 0.88702369
 0.86519344
 0.83749300
 0.80574301
 0.77190884
 0.73789521
 0.70536505
 0.67560849
 0.64947509
 0.62736926
 0.60929832
 0.59495650
 0.58382455
 0.57526688
 0.56861441
 0.56322831
 0.55854472
 0.55410179
 0.54955135
 0.54465763
 0.53928727
 0.53339504
 0.52700860
 0.52021333
 0.51313662
 0.50593169
 0.49876187
 0.49178739
 0.48515554
 0.47899322
 0.47340078
 0.46844640
 0.46416218
 0.46054393
 0.45755560
 0.45513742
 0.45321525
 0.45170854
 0.45053634
 0.44962175
 0.44889626
 0.44830371
 0.44780202
 0.44736140
 0.44695992
 0.44657931
 0.44620290
 0.44581556
 0.44540390
 0.44495554
 0.44445765
 0.44389631
 0.44325805
 0.44253289
 0.44171708
 0.44081338
 0.43982880
 0.43877129
 0.43764742
 0.43646166
 0.43521645
 0.43391194
 0.43254560
 0.43111239
 0.42960633
 0.42802272
 0.42635971
 0.42461890
 0.42280514
 0.42092644
 0.41899394
 0.41702189
 0.41502695
 0.41302697
 0.41103968
 0.40908223
 0.40717180
 0.40532680
 0.40356730
 0.40191396
 0.40038620
 0.39900155
 0.39777701
 0.39673151
 0.39588714
 0.39526796
 0.39489726
 0.39479558
 0.39498130
 0.39547322
 0.39629266
 0.39746307
 0.39900742
 0.40094497
 0.40328940
 0.40604860
 0.40922530
 0.41281716
 0.41681573
 0.42120427
 0.42595482
 0.43102498
 0.43635480
 0.44186492
 0.44745748
 0.45302118
 0.45844038
 0.46360640
 0.46842782
 0.47283683
 0.47679077
 0.48026998
 0.48327410
 0.48581835
 0.48793007
 0.48964562
 0.49100770
 0.49206365
 0.49286419
 0.49346177
 0.49390730
 0.49424512
 0.49450778
 0.49471331
 0.49486669
 0.49496425
 0.49499824
 0.49495975
 0.49484014
 0.49463287
 0.49433671
 0.49395904
 0.49351738
 0.49303775
 0.49255062
 0.49208643
 0.49167254
 0.49133191
 0.49108225
 0.49093481
 0.49089296
 0.49095240
 0.49110364
 0.49133554
 0.49163766
 0.49199942
 0.49240718
 0.49284222
 0.49328202
 0.49370451
 0.49409206
 0.49443262
 0.49471776
 0.49494029
 0.49509372
 0.49517411
 0.49518249
 0.49512609
 0.49501770
 0.49487395
 0.49471386
 0.49455797
 0.49442691
 0.49433856
 0.49430420
 0.49432554
 0.49439463
 0.49449686
 0.49461572
 0.49473692
 0.49485063
 0.49495191
 0.49504079
 0.49512283
 0.49521012
 0.49532145
 0.49548069
 0.49571400
 0.49604696
 0.49650261
 0.49709991
 0.49785234
 0.49876611
 0.49983838
 0.50105586
 0.50239432
 0.50381970
 0.50529107
 0.50676532
 0.50820270
 0.50957192
 0.51085334
 0.51203933
 0.51313171
 0.51413750
 0.51506465
 0.51591897
 0.51670172
 0.51740730
 0.51802083
 0.51851721
 0.51886287
 0.51902039
 0.51895427
 0.51863559
 0.51804466
 0.51717245
 0.51602243
 0.51461314
 0.51298020
 0.51117579
 0.50926464
 0.50731761
 0.50540541
 0.50359428
 0.50194354
 0.50050338
 0.49931139
 0.49838841
 0.49773577
 0.49733529
 0.49715219
 0.49713912
 0.49723978
 0.49739111
 0.49752508
 0.49757124
 0.49746105
 0.49713393
 0.49654413
 0.49566809
 0.49451219
 0.49312169
 0.49159052
 0.49007072
 0.48877959
 0.48800332
 0.48809651
 0.48947673
 0.49261201
 0.49799936
 0.50613430
 0.51747415
 0.53240017
 0.55118360
 0.57395722
 0.60069033
 0.63116266
 0.66493462
 0.70131664
 0.73934488
 0.77777456
 0.81510235
 0.84962809
 0.87956034
 0.90316196
 0.91892211
 0.92573136
 0.92303179
 0.91091466
 0.89014597
 0.86211028
 0.82867524
 0.79199246
 0.75426437
 0.71751635
 0.68341217
 0.65313885
 0.62736873
 0.60628989
 0.58968569
 0.57704069
 0.56765290
 0.56073785
 0.55551543
 0.55127506
 0.54741794
 0.54347896
 0.53913269
 0.53418817
 0.52857601
 0.52232945
 0.51556032
 0.50843223
 0.50113434
 0.49385957
 0.48678929
 0.48008375
 0.47387563
 0.46826442
 0.46331195
 0.45904075
 0.45543679
 0.45245616
 0.45003363
 0.44809110
 0.44654451
 0.44530990
 0.44430934
 0.44347652
 0.44276036
 0.44212488
 0.44154558
 0.44100438
 0.44048571
 0.43997468
 0.43945657
 0.43891707
 0.43834283
 0.43772254
 0.43704788
 0.43631409
 0.43551943
 0.43466388
 0.43374786
 0.43277184
 0.43173691
 0.43064526
 0.42949932
 0.42829920
 0.42703983
 0.42571007
 0.42429490
 0.42277950
 0.42115299
 0.41941025
 0.41755202
 0.41558501
 0.41352267
 0.41138588
 0.40920151
 0.40699869
 0.40480406
 0.40263928
 0.40052186
 0.39846838
 0.39649795
 0.39463427
 0.39290616
 0.39134687
 0.38999328
 0.38888508
 0.38806340
 0.38756790
 0.38743293
 0.38768430
 0.38833859
 0.38940501
 0.39088877
 0.39279391
 0.39512465
 0.39788516
 0.40107852
 0.40470511
 0.40876032
 0.41323108
 0.41809210
 0.42330326
 0.42880909
 0.43454016
 0.44041514
 0.44634305
 0.45222609
 0.45796410
 0.46346076
 0.46862965
 0.47339856
 0.47771154
 0.48152984
 0.48483301
 0.48762053
 0.48991274
 0.49174905
 0.49318235
 0.49427136
 0.49507377
 0.49564279
 0.49602699
 0.49627127
 0.49641619
 0.49649544
 0.49653334
 0.49654456
 0.49653603
 0.49650919
 0.49646101
 0.49638357
 0.49626403
 0.49608685
 0.49583811
 0.49551013
 0.49510431
 0.49463132
 0.49410956
 0.49356262
 0.49301671
 0.49249826
 0.49203167
 0.49163717
 0.49132889
 0.49111359
 0.49099042
 0.49095176
 0.49098442
 0.49107083
 0.49119031
 0.49132099
 0.49144283
 0.49154070
 0.49160654
 0.49164002
 0.49164840
 0.49164571
 0.49165071
 0.49168295
 0.49175726
 0.49187904
 0.49204271
 0.49223399
 0.49243442
 0.49262518
 0.49278848
 0.49290760
 0.49296785
 0.49295933
 0.49288030
 0.49273839
 0.49254851
 0.49232818
 0.49209297
 0.49185429
 0.49162005
 0.49139659
 0.49119013
 0.49100712
 0.49085470
 0.49074232
 0.49068456
 0.49070332
 0.49082773
 0.49109132
 0.49152756
 0.49216549
 0.49302649
 0.49412194
 0.49545067
 0.49699626
 0.49872577
 0.50059115
 0.50253369
 0.50448978
 0.50639648
 0.50819629
 0.50984119
 0.51129568
 0.51253823
 0.51356014
 0.51436187
 0.51494836
 0.51532531
 0.51549775
 0.51547042
 0.51524821
 0.51483538
 0.51423408
 0.51344425
 0.51246590
 0.51130285
 0.50996559
 0.50847203
 0.50684637
 0.50511774
 0.50332005
 0.50149268
 0.49968060
 0.49793211
 0.49629406
 0.49480682
 0.49350113
 0.49239801
 0.49150986
 0.49084066
 0.49038458
 0.49012488
 0.49003503
 0.49008186
 0.49022821
 0.49043268
 0.49064684
 0.49081316
 0.49086694
 0.49074330
 0.49038715
 0.48976402
 0.48887054
 0.48774526
 0.48648006
 0.48523112
 0.48422681
 0.48377063
 0.48423818
 0.48606714
 0.48973897
 0.49575128
 0.50458243
 0.51665260
 0.53228771
 0.55169145
 0.57492584
 0.60189612
 0.63233356
 0.66577311
 0.70152812
 0.73867002
 0.77602345
 0.81218764
 0.84559272
 0.87459527
 0.89761031
 0.91326740
 0.92057030
 0.91903360
 0.90876936
 0.89050323
 0.86551137
 0.83548371
 0.80233436
 0.76799175
 0.73420460
 0.70239388
 0.67356709
 0.64829744
 0.62675783
 0.60879251
 0.59400704
 0.58186038
 0.57174806
 0.56307111
 0.55528816
 0.54795065
 0.54072209
 0.53338298
 0.52582410
 0.51803097
 0.51006342
 0.50203311
 0.49408092
 0.48635552
 0.47899546
 0.47211716
 0.46580972
 0.46013460
 0.45512660
 0.45079396
 0.44711802
 0.44405511
 0.44154226
 0.43950547
 0.43786731
 0.43655192
 0.43548779
 0.43460969
 0.43386091
 0.43319560
 0.43257934
 0.43198688
 0.43139788
 0.43079315
 0.43015331
 0.42945979
 0.42869686
 0.42785274
 0.42691960
 0.42589305
 0.42477209
 0.42355961
 0.42226261
 0.42089156
 0.41945885
 0.41797713
 0.41645851
 0.41491442
 0.41335497
 0.41178686
 0.41021026
 0.40861642
 0.40698785
 0.40530163
 0.40353399
 0.40166378
 0.39967416
 0.39755407
 0.39530083
 0.39292360
 0.39044530
 0.38790152
 0.38533655
 0.38279847
 0.38033547
 0.37799429
 0.37581963
 0.37385280
 0.37212930
 0.37067667
 0.36951456
 0.36865728
 0.36811776
 0.36791063
 0.36805331
 0.36856496
 0.36946468
 0.37076926
 0.37249033
 0.37463121
 0.37718440
 0.38013114
 0.38344313
 0.38708548
 0.39101998
 0.39520809
 0.39961356
 0.40420475
 0.40895612
 0.41384768
 0.41886184
 0.42397795
 0.42916653
 0.43438554
 0.43958030
 0.44468657
 0.44963530
 0.45435695
 0.45878521
 0.46286084
 0.46653623
 0.46977995
 0.47257957
 0.47494218
 0.47689277
 0.47847158
 0.47973100
 0.48073156
 0.48153630
 0.48220351
 0.48277939
 0.48329344
 0.48375865
 0.48417603
 0.48454030
 0.48484380
 0.48507805
 0.48523451
 0.48530616
 0.48529017
 0.48519023
 0.48501718
 0.48478725
 0.48451908
 0.48423092
 0.48393910
 0.48365725
 0.48339529
 0.48315820
 0.48294527
 0.48275093
 0.48256719
 0.48238637
 0.48220255
 0.48201166
 0.48181119
 0.48160023
 0.48137935
 0.48114953
 0.48091026
 0.48065815
 0.48038757
 0.48009401
 0.47977800
 0.47944700
 0.47911382
 0.47879271
 0.47849598
 0.47823323
 0.47801300
 0.47784411
 0.47773453
 0.47768828
 0.47770235
 0.47776632
 0.47786493
 0.47798227
 0.47810520
 0.47822491
 0.47833670
 0.47843898
 0.47853213
 0.47861785
 0.47869878
 0.47877831
 0.47886017
 0.47894806
 0.47904526
 0.47915420
 0.47927593
 0.47941005
 0.47955559
 0.47971292
 0.47988587
 0.48008272
 0.48031553
 0.48059829
 0.48094523
 0.48137000
 0.48188564
 0.48250379
 0.48323250
 0.48407302
 0.48501749
 0.48604915
 0.48714570
 0.48828448
 0.48944728
 0.49062286
 0.49180709
 0.49300140
 0.49421041
 0.49543877
 0.49668751
 0.49795109
 0.49921584
 0.50046042
 0.50165742
 0.50277565
 0.50378229
 0.50464495
 0.50533338
 0.50582129
 0.50608729
 0.50611498
 0.50589207
 0.50541002
 0.50466529
 0.50366229
 0.50241658
 0.50095655
 0.49932249
 0.49756432
 0.49573990
 0.49391459
 0.49216057
 0.49055301
 0.48916223
 0.48804375
 0.48722978
 0.48672507
 0.48650822
 0.48653686
 0.48675460
 0.48709761
 0.48749989
 0.48789650
 0.48822451
 0.48842191
 0.48842616
 0.48817473
 0.48761012
 0.48669010
 0.48540181
 0.48377706
 0.48190642
 0.47995082
 0.47815032
 0.47682935
 0.47639716
 0.47734083
 0.48020823
 0.48557971
 0.49402936
 0.50607882
 0.52214813
 0.54250914
 0.56724663
 0.59622973
 0.62909285
 0.66522411
 0.70376045
 0.74359260
 0.78338631
 0.82162646
 0.85668745
 0.88692739
 0.91079963
 0.92697368
 0.93445764
 0.93271176
 0.92173849
 0.90212970
 0.87505194
 0.84215850
 0.80543113
 0.76697268
 0.72878761
 0.69259175
 0.65968385
 0.63089110
 0.60658064
 0.58671803
 0.57095221
 0.55871065
 0.54929318
 0.54195627
 0.53598263
 0.53073362
 0.52568492
 0.52044737
 0.51477470
 0.50855892
 0.50181396
 0.49465049
 0.48724602
 0.47981504
 0.47258242
 0.46576091
 0.45953283
 0.45403616
 0.44935591
 0.44552162
 0.44251061
 0.44025541
 0.43865376
 0.43758033
 0.43689985
 0.43648064
 0.43620668
 0.43598540
 0.43574972
 0.43545558
 0.43507768
 0.43460602
 0.43404363
 0.43340414
 0.43270719
 0.43197190
 0.43121058
 0.43042538
 0.42960880
 0.42874674
 0.42782177
 0.42681590
 0.42571275
 0.42450001
 0.42317132
 0.42172686
 0.42017242
 0.41851792
 0.41677651
 0.41496441
 0.41310082
 0.41120676
 0.40930263
 0.40740542
 0.40552744
 0.40367712
 0.40186061
 0.40008220
 0.39834294
 0.39663856
 0.39495932
 0.39329304
 0.39163051
 0.38997012
 0.38831930
 0.38669311
 0.38511193
 0.38360052
 0.38218868
 0.38091225
 0.37981286
 0.37893591
 0.37832762
 0.37803337
 0.37809741
 0.37856281
 0.37946988
 0.38085323
 0.38273851
 0.38514058
 0.38806324
 0.39149973
 0.39543240
 0.39983146
 0.40465387
 0.40984323
 0.41533092
 0.42103763
 0.42687533
 0.43275020
 0.43856734
 0.44423676
 0.44967876
 0.45482677
 0.45962714
 0.46403785
 0.46802805
 0.47157950
 0.47468866
 0.47736696
 0.47963828
 0.48153419
 0.48308946
 0.48433965
 0.48532101
 0.48607101
 0.48662754
 0.48702668
 0.48730055
 0.48747680
 0.48757990
 0.48763258
 0.48765577
 0.48766687
 0.48767740
 0.48769160
 0.48770665
 0.48771453
 0.48770449
 0.48766524
 0.48758736
 0.48746584
 0.48730200
 0.48710364
 0.48688248
 0.48665036
 0.48641636
 0.48618642
 0.48596473
 0.48575465
 0.48555754
 0.48537075
 0.48518664
 0.48499407
 0.48478161
 0.48454088
 0.48426813
 0.48396408
 0.48363277
 0.48328103
 0.48291871
 0.48255904
 0.48221793
 0.48191214
 0.48165721
 0.48146626
 0.48134935
 0.48131299
 0.48135935
 0.48148596
 0.48168635
 0.48195131
 0.48226975
 0.48262921
 0.48301611
 0.48341685
 0.48381973
 0.48421765
 0.48460998
 0.48500239
 0.48540389
 0.48582233
 0.48626044
 0.48671441
 0.48717512
 0.48763063
 0.48806804
 0.48847382
 0.48883381
 0.48913433
 0.48936515
 0.48952297
 0.48961369
 0.48965290
 0.48966496
 0.48968152
 0.48973931
 0.48987657
 0.49012830
 0.49052133
 0.49107116
 0.49178093
 0.49264177
 0.49363329
 0.49472395
 0.49587235
 0.49703115
 0.49815360
 0.49920072
 0.50014607
 0.50097668
 0.50169071
 0.50229398
 0.50279722
 0.50321448
 0.50356157
 0.50385350
 0.50410090
 0.50430714
 0.50446767
 0.50457170
 0.50460482
 0.50455113
 0.50439420
 0.50411749
 0.50370497
 0.50314208
 0.50241673
 0.50152013
 0.50044773
 0.49920104
 0.49779017
 0.49623657
 0.49457441
 0.49284918
 0.49111350
 0.48942182
 0.48782617
 0.48637337
 0.48510267
 0.48404272
 0.48320847
 0.48259975
 0.48220338
 0.48199791
 0.48195826
 0.48205724
 0.48226341
 0.48253746
 0.48283016
 0.48308355
 0.48323526
 0.48322494
 0.48300212
 0.48253514
 0.48182132
 0.48089796
 0.47985281
 0.47883254
 0.47804845
 0.47777936
 0.47837093
 0.48022955
 0.48380874
 0.48958735
 0.49804196
 0.50961768
 0.52470051
 0.54359064
 0.56647229
 0.59337548
 0.62412927
 0.65831233
 0.69521117
 0.73379821
 0.77273933
 0.81043785
 0.84511847
 0.87495120
 0.89820806
 0.91343677
 0.91962763
 0.91634654
 0.90381006
 0.88288583
 0.85501247
 0.82204594
 0.78605466
 0.74909812
 0.71302750
 0.67933809
 0.64908754
 0.62287768
 0.60088830
 0.58294701
 0.56861989
 0.55730860
 0.54834186
 0.54105209
 0.53483217
 0.52917159
 0.52367469
 0.51806526
 0.51218151
 0.50596383
 0.49943657
 0.49268548
 0.48583398
 0.47902221
 0.47239146
 0.46607428
 0.46018779
 0.45482781
 0.45006337
 0.44593288
 0.44244365
 0.43957477
 0.43728170
 0.43550088
 0.43415413
 0.43315376
 0.43240906
 0.43183357
 0.43135083
 0.43089687
 0.43041981
 0.42987861
 0.42924312
 0.42849519
 0.42762963
 0.42665364
 0.42558461
 0.42444697
 0.42326896
 0.42207941
 0.42090406
 0.41976160
 0.41866049
 0.41759806
 0.41656223
 0.41553477
 0.41449413
 0.41341696
 0.41227901
 0.41105688
 0.40973175
 0.40829386
 0.40674523
 0.40509880
 0.40337465
 0.40159532
 0.39978254
 0.39795597
 0.39613330
 0.39433040
 0.39256109
 0.39083722
 0.38917000
 0.38757239
 0.38606096
 0.38465551
 0.38337704
 0.38224562
 0.38128000
 0.38049905
 0.37992386
 0.37957887
 0.37949209
 0.37969451
 0.38021928
 0.38110026
 0.38236925
 0.38405210
 0.38616500
 0.38871313
 0.39169219
 0.39509143
 0.39889555
 0.40308404
 0.40762843
 0.41248973
 0.41761759
 0.42295115
 0.42842028
 0.43394629
 0.43944317
 0.44482057
 0.44998947
 0.45486876
 0.45939070
 0.46350350
 0.46717132
 0.47037337
 0.47310404
 0.47537405
 0.47721093
 0.47865693
 0.47976433
 0.48058992
 0.48119020
 0.48161792
 0.48191940
 0.48213242
 0.48228477
 0.48239416
 0.48246974
 0.48251479
 0.48252940
 0.48251212
 0.48246039
 0.48237051
 0.48223791
 0.48205772
 0.48182537
 0.48153682
 0.48118913
 0.48078185
 0.48031903
 0.47981038
 0.47927023
 0.47871409
 0.47815456
 0.47759915
 0.47705121
 0.47651325
 0.47599059
 0.47549253
 0.47503079
 0.47461679
 0.47425985
 0.47396701
 0.47374312
 0.47358987
 0.47350380
 0.47347503
 0.47348808
 0.47352480
 0.47356802
 0.47360485
 0.47362888
 0.47364163
 0.47365315
 0.47368085
 0.47374609
 0.47386877
 0.47406221
 0.47433049
 0.47466877
 0.47506537
 0.47550374
 0.47596345
 0.47642065
 0.47684974
 0.47722704
 0.47753586
 0.47777033
 0.47793566
 0.47804434
 0.47811044
 0.47814513
 0.47815544
 0.47814563
 0.47811930
 0.47808067
 0.47803556
 0.47799254
 0.47796460
 0.47796998
 0.47803083
 0.47817011
 0.47840814
 0.47876066
 0.47923877
 0.47984977
 0.48059747
 0.48148179
 0.48249808
 0.48363699
 0.48488438
 0.48622051
 0.48761829
 0.48904222
 0.49044984
 0.49179613
 0.49303980
 0.49414907
 0.49510516
 0.49590243
 0.49654620
 0.49704929
 0.49742835
 0.49770000
 0.49787728
 0.49796713
 0.49796982
 0.49788031
 0.49769089
 0.49739324
 0.49697908
 0.49643949
 0.49576434
 0.49494335
 0.49396907
 0.49284039
 0.49156504
 0.49016047
 0.48865339
 0.48707859
 0.48547692
 0.48389201
 0.48236548
 0.48093220
 0.47961761
 0.47843841
 0.47740575
 0.47652784
 0.47580979
 0.47525047
 0.47483933
 0.47455584
 0.47437255
 0.47426035
 0.47419296
 0.47414904
 0.47411132
 0.47406425
 0.47399181
 0.47387640
 0.47369901
 0.47344088
 0.47308751
 0.47263536
 0.47210049
 0.47152731
 0.47099627
 0.47063041
 0.47060065
 0.47112936
 0.47248974
 0.47499867
 0.47900133
 0.48484867
 0.49287126
 0.50335478
 0.51652160
 0.53252042
 0.55142335
 0.57322680
 0.59785133
 0.62513571
 0.65482205
 0.68653159
 0.71973353
 0.75371395
 0.78755480
 0.82013466
 0.85016077
 0.87623771
 0.89697218
 0.91110551
 0.91765747
 0.91605857
 0.90624744
 0.88871326
 0.86447142
 0.83497148
 0.80194908
 0.76724507
 0.73262182
 0.69960548
 0.66937421
 0.64270176
 0.61995489
 0.60113552
 0.58595332
 0.57391291
 0.56440154
 0.55676725
 0.55038209
 0.54468809
 0.53922599
 0.53364822
 0.52771976
 0.52131083
 0.51438562
 0.50698906
 0.49923149
 0.49127011
 0.48328732
 0.47546877
 0.46798507
 0.46097988
 0.45456423
 0.44881473
 0.44377357
 0.43944948
 0.43582072
 0.43284102
 0.43044719
 0.42856605
 0.42711878
 0.42602308
 0.42519536
 0.42455449
 0.42402706
 0.42355183
 0.42308189
 0.42258438
 0.42203885
 0.42143555
 0.42077359
 0.42005847
 0.41929825
 0.41849993
 0.41766736
 0.41680155
 0.41590223
 0.41496903
 0.41400104
 0.41299488
 0.41194336
 0.41083631
 0.40966377
 0.40841966
 0.40710304
 0.40571623
 0.40426145
 0.40273849
 0.40114522
 0.39948018
 0.39774589
 0.39595120
 0.39411163
 0.39224771
 0.39038171
 0.38853333
 0.38671542
 0.38493113
 0.38317421
 0.38143246
 0.37969285
 0.37794565
 0.37618613
 0.37441440
 0.37263482
 0.37085681
 0.36909691
 0.36738052
 0.36574103
 0.36421625
 0.36284347
 0.36165535
 0.36067826
 0.35993340
 0.35944009
 0.35921931
 0.35929610
 0.35969977
 0.36046204
 0.36161381
 0.36318141
 0.36518329
 0.36762809
 0.37051422
 0.37383088
 0.37755907
 0.38167153
 0.38613114
 0.39088914
 0.39588509
 0.40104921
 0.40630681
 0.41158326
 0.41680828
 0.42191894
 0.42686157
 0.43159312
 0.43608198
 0.44030759
 0.44425877
 0.44793216
 0.45133152
 0.45446705
 0.45735330
 0.46000538
 0.46243499
 0.46464871
 0.46664961
 0.46844115
 0.47003078
 0.47143098
 0.47265714
 0.47372395
 0.47464317
 0.47542387
 0.47607419
 0.47660252
 0.47701710
 0.47732477
 0.47753049
 0.47763841
 0.47765364
 0.47758338
 0.47743696
 0.47722583
 0.47696405
 0.47666901
 0.47636117
 0.47606163
 0.47578810
 0.47555156
 0.47535567
 0.47519912
 0.47507894
 0.47499255
 0.47493759
 0.47491034
 0.47490437
 0.47491028
 0.47491597
 0.47490718
 0.47486820
 0.47478368
 0.47464139
 0.47443489
 0.47416394
 0.47383218
 0.47344381
 0.47300189
 0.47250939
 0.47197200
 0.47140063
 0.47081183
 0.47022589
 0.46966365
 0.46914404
 0.46868366
 0.46829766
 0.46800014
 0.46780297
 0.46771359
 0.46773333
 0.46785669
 0.46807151
 0.46835955
 0.46869781
 0.46906147
 0.46942808
 0.46978119
 0.47011154
 0.47041550
 0.47069245
 0.47094330
 0.47117150
 0.47138572
 0.47160143
 0.47183896
 0.47211754
 0.47244810
 0.47282846
 0.47324316
 0.47366713
 0.47407095
 0.47442582
 0.47470804
 0.47490326
 0.47500991
 0.47504011
 0.47501713
 0.47497037
 0.47493103
 0.47493063
 0.47500235
 0.47518244
 0.47550904
 0.47601785
 0.47673617
 0.47767751
 0.47883814
 0.48019540
 0.48170757
 0.48331550
 0.48494737
 0.48652660
 0.48798192
 0.48925673
 0.49031564
 0.49114717
 0.49176339
 0.49219731
 0.49249809
 0.49272331
 0.49292913
 0.49316069
 0.49344570
 0.49379307
 0.49419586
 0.49463674
 0.49509367
 0.49554416
 0.49596745
 0.49634494
 0.49665971
 0.49689524
 0.49703356
 0.49705347
 0.49693047
 0.49663939
 0.49615887
 0.49547585
 0.49458829
 0.49350570
 0.49224825
 0.49084575
 0.48933685
 0.48776766
 0.48618890
 0.48465195
 0.48320499
 0.48189048
 0.48074379
 0.47979224
 0.47905357
 0.47853364
 0.47822386
 0.47810058
 0.47812765
 0.47826208
 0.47846092
 0.47868774
 0.47891766
 0.47914003
 0.47935825
 0.47958618
 0.47984188
 0.48014067
 0.48048957
 0.48088470
 0.48131132
 0.48174491
 0.48215234
 0.48249289
 0.48272048
 0.48278820
 0.48265537
 0.48229678
 0.48171264
 0.48093863
 0.48005542
 0.47919720
 0.47855683
 0.47838483
 0.47898013
 0.48067300
 0.48380281
 0.48869473
 0.49563931
 0.50487814
 0.51659755
 0.53093090
 0.54796752
 0.56776345
 0.59034713
 0.61571401
 0.64380777
 0.67449039
 0.70750688
 0.74245220
 0.77874695
 0.81562633
 0.85214563
 0.88720457
 0.91959138
 0.94804513
 0.97133215
 0.98832921
 0.99810596
 1.00000000
 0.99368065
 0.97919771
 0.95701074
 0.92799166
 0.89339221
 0.85477017
 0.81387460
 0.77250107
 0.73233761
 0.69482669
 0.66106505
 0.63175290
 0.60719334
 0.58733424
 0.57183902
 0.56017124
 0.55167940
 0.54567243
 0.54148067
 0.53850001
 0.53621872
 0.53422742
 0.53221506
 0.52995540
 0.52729052
 0.52411657
 0.52037433
 0.51604406
 0.51114235
 0.50571920
 0.49985455
 0.49365424
 0.48724499
 0.48076751
 0.47436740
 0.46818517
 0.46234792
 0.45696425
 0.45212178
 0.44788536
 0.44429418
 0.44135801
 0.43905428
 0.43732855
 0.43609940
 0.43526658
 0.43472035
 0.43435065
 0.43405597
 0.43375220
 0.43337980
 0.43290738
 0.43232985
 0.43166215
 0.43093119
 0.43016849
 0.42940462
 0.42866506
 0.42796702
 0.42731761
 0.42671435
 0.42614841
 0.42560907
 0.42508713
 0.42457549
 0.42406765
 0.42355618
 0.42303322
 0.42249287
 0.42193328
 0.42135672
 0.42076753
 0.42016964
 0.41956534
 0.41895531
 0.41833876
 0.41771248
 0.41706939
 0.41639766
 0.41568202
 0.41490708
 0.41406087
 0.41313640
 0.41213097
 0.41104443
 0.40987852
 0.40863812
 0.40733323
 0.40597996
 0.40459946
 0.40321528
 0.40185050
 0.40052534
 0.39925482
 0.39804628
 0.39689704
 0.39579370
 0.39471408
 0.39363170
 0.39252100
 0.39136204
 0.39014386
 0.38886650
 0.38754181
 0.38619230
 0.38484773
 0.38353971
 0.38229643
 0.38113993
 0.38008629
 0.37914774
 0.37833446
 0.37765538
 0.37711780
 0.37672715
 0.37648797
 0.37640598
 0.37649034
 0.37675437
 0.37721468
 0.37788964
 0.37879837
 0.37996053
 0.38139559
 0.38312088
 0.38514869
 0.38748395
 0.39012362
 0.39305762
 0.39627017
 0.39974041
 0.40344259
 0.40734684
 0.41142117
 0.41563378
 0.41995446
 0.42435393
 0.42880170
 0.43326343
 0.43769906
 0.44206251
 0.44630246
 0.45036436
 0.45419394
 0.45774266
 0.46097431
 0.46387087
 0.46643501
 0.46868821
 0.47066524
 0.47240687
 0.47395317
 0.47533855
 0.47658889
 0.47772022
 0.47873888
 0.47964326
 0.48042714
 0.48108391
 0.48160996
 0.48200607
 0.48227700
 0.48243084
 0.48247923
 0.48243791
 0.48232602
 0.48216342
 0.48196691
 0.48174759
 0.48151116
 0.48126057
 0.48099943
 0.48073380
 0.48047164
 0.48022099
 0.47998887
 0.47978174
 0.47960635
 0.47946959
 0.47937675
 0.47932925
 0.47932304
 0.47934817
 0.47938926
 0.47942689
 0.47944013
 0.47941038
 0.47932590
 0.47918557
 0.47900039
 0.47879125
 0.47858351
 0.47840059
 0.47825980
 0.47817157
 0.47814068
 0.47816709
 0.47824543
 0.47836484
 0.47851073
 0.47866884
 0.47882882
 0.47898512
 0.47913496
 0.47927547
 0.47940248
 0.47951146
 0.47959941
 0.47966587
 0.47971281
 0.47974421
 0.47976630
 0.47978791
 0.47981984
 0.47987256
 0.47995329
 0.48006424
 0.48020277
 0.48036274
 0.48053516
 0.48070724
 0.48086039
 0.48097008
 0.48100965
 0.48095758
 0.48080480
 0.48055878
 0.48024323
 0.47989493
 0.47955954
 0.47928737
 0.47912896
 0.47913010
 0.47932701
 0.47974289
 0.48038679
 0.48125416
 0.48232811
 0.48358055
 0.48497343
 0.48646097
 0.48799377
 0.48952391
 0.49100938
 0.49241644
 0.49372033
 0.49490494
 0.49596239
 0.49689244
 0.49770076
 0.49839563
 0.49898368
 0.49946637
 0.49983923
 0.50009427
 0.50022415
 0.50022502
 0.50009640
 0.49983874
 0.49945111
 0.49893056
 0.49827333
 0.49747651
 0.49653919
 0.49546306
 0.49425300
 0.49291759
 0.49146932
 0.48992475
 0.48830497
 0.48663719
 0.48495671
 0.48330756
 0.48173964
 0.48030215
 0.47903533
 0.47796436
 0.47709809
 0.47643279
 0.47595791
 0.47566045
 0.47552637
 0.47554037
 0.47568581
 0.47594489
 0.47629779
 0.47672013
 0.47717944
 0.47763249
 0.47802466
 0.47829206
 0.47836591
 0.47817891
 0.47767387
 0.47681529
 0.47560372
 0.47409137
 0.47239629
 0.47071280
 0.46931698
 0.46856668
 0.46889549
 0.47079928
 0.47481397
 0.48148487
 0.49133072
 0.50480794
 0.52227922
 0.54398711
 0.57002871
 0.60032652
 0.63459341
 0.67229580
 0.71262362
 0.75447713
 0.79647941
 0.83702016
 0.87433352
 0.90660852
 0.93212617
 0.94941055
 0.95737560
 0.95544766
 0.94364719
 0.92261778
 0.89359480
 0.85830962
 0.81883243
 0.77736909
 0.73604274
 0.69669938
 0.66077013
 0.62920524
 0.60247526
 0.58062302
 0.56334713
 0.55009961
 0.54018442
 0.53284650
 0.52734410
 0.52300089
 0.51923883
 0.51559565
 0.51173140
 0.50742684
 0.50257514
 0.49716716
 0.49127231
 0.48501749
 0.47856649
 0.47210102
 0.46580334
 0.45984070
 0.45435293
 0.44944468
 0.44518305
 0.44159926
 0.43869211
 0.43643099
 0.43475848
 0.43359404
 0.43284059
 0.43239368
 0.43215085
 0.43201868
 0.43191678
 0.43177913
 0.43155430
 0.43120510
 0.43070788
 0.43005109
 0.42923293
 0.42825891
 0.42714036
 0.42589402
 0.42454194
 0.42311087
 0.42163148
 0.42013760
 0.41866531
 0.41725083
 0.41592594
 0.41471148
 0.41361187
 0.41261367
 0.41168935
 0.41080438
 0.40992448
 0.40901972
 0.40806532
 0.40704118
 0.40593213
 0.40472941
 0.40343191
 0.40204610
 0.40058387
 0.39905881
 0.39748209
 0.39585883
 0.39418616
 0.39245388
 0.39064854
 0.38876088
 0.38679407
 0.38476922
 0.38272562
 0.38071598
 0.37879960
 0.37703673
 0.37548549
 0.37420057
 0.37323265
 0.37262734
 0.37242371
 0.37265285
 0.37333737
 0.37449174
 0.37612305
 0.37823078
 0.38080548
 0.38382741
 0.38726735
 0.39108994
 0.39525764
 0.39973257
 0.40447523
 0.40944148
 0.41458021
 0.41983282
 0.42513405
 0.43041307
 0.43559444
 0.44059987
 0.44535209
 0.44978087
 0.45382918
 0.45745708
 0.46064255
 0.46338016
 0.46567909
 0.46756128
 0.46905938
 0.47021390
 0.47107006
 0.47167512
 0.47207682
 0.47232211
 0.47245488
 0.47251229
 0.47252135
 0.47249785
 0.47244877
 0.47237663
 0.47228263
 0.47216723
 0.47202875
 0.47186244
 0.47166138
 0.47141903
 0.47113150
 0.47079817
 0.47042055
 0.47000121
 0.46954401
 0.46905545
 0.46854512
 0.46802393
 0.46750071
 0.46697924
 0.46645798
 0.46593292
 0.46540194
 0.46486829
 0.46434177
 0.46383790
 0.46337643
 0.46297953
 0.46266922
 0.46246364
 0.46237268
 0.46239480
 0.46251691
 0.46271769
 0.46297288
 0.46326016
 0.46356190
 0.46386601
 0.46416598
 0.46446046
 0.46475226
 0.46504647
 0.46534827
 0.46566068
 0.46598323
 0.46631169
 0.46663870
 0.46695519
 0.46725203
 0.46752202
 0.46776196
 0.46797381
 0.46816422
 0.46834214
 0.46851540
 0.46868827
 0.46886129
 0.46903297
 0.46920169
 0.46936657
 0.46952743
 0.46968566
 0.46984681
 0.47002374
 0.47023831
 0.47051981
 0.47090008
 0.47140739
 0.47206133
 0.47287005
 0.47382940
 0.47492275
 0.47612130
 0.47738586
 0.47867131
 0.47993330
 0.48113506
 0.48225132
 0.48326826
 0.48418058
 0.48498823
 0.48569439
 0.48630445
 0.48682458
 0.48725923
 0.48760828
 0.48786513
 0.48801637
 0.48804251
 0.48791890
 0.48761661
 0.48710470
 0.48635483
 0.48534777
 0.48407960
 0.48256556
 0.48084073
 0.47895861
 0.47698852
 0.47501199
 0.47311715
 0.47139026
 0.46990565
 0.46871692
 0.46785212
 0.46731349
 0.46708042
 0.46711344
 0.46735770
 0.46774528
 0.46819693
 0.46862438
 0.46893456
 0.46903668
 0.46885220
 0.46832742
 0.46744734
 0.46624905
 0.46483284
 0.46337020
 0.46210854
 0.46137290
 0.46156372
 0.46314839
 0.46664358
 0.47258717
 0.48150215
 0.49385730
 0.51003003
 0.53027272
 0.55467952
 0.58314902
 0.61534215
 0.65064126
 0.68812203
 0.72655042
 0.76441378
 0.79999129
 0.83146395
 0.85705967
 0.87522135
 0.88477805
 0.88509274
 0.87615912
 0.85862560
 0.83373629
 0.80319384
 0.76896548
 0.73306689
 0.69736191
 0.66340827
 0.63236441
 0.60495800
 0.58150725
 0.56198040
 0.54607694
 0.53331499
 0.52311329
 0.51486136
 0.50797553
 0.50194020
 0.49633436
 0.49084471
 0.48526721
 0.47949964
 0.47352782
 0.46740748
 0.46124368
 0.45516952
 0.44932608
 0.44384539
 0.43883769
 0.43438255
 0.43052352
 0.42726663
 0.42458382
 0.42242060
 0.42070589
 0.41936084
 0.41830499
 0.41746033
 0.41675487
 0.41612624
 0.41552471
 0.41491417
 0.41427048
 0.41357824
 0.41282779
 0.41201394
 0.41113608
 0.41019838
 0.40920849
 0.40817507
 0.40710562
 0.40600592
 0.40488106
 0.40373693
 0.40258055
 0.40141866
 0.40025531
 0.39909014
 0.39791783
 0.39672847
 0.39550812
 0.39423937
 0.39290253
 0.39147800
 0.38994946
 0.38830699
 0.38654900
 0.38468275
 0.38272418
 0.38069735
 0.37863320
 0.37656704
 0.37453513
 0.37257141
 0.37070643
 0.36896886
 0.36738869
 0.36599919
 0.36483596
 0.36393380
 0.36332401
 0.36303406
 0.36308921
 0.36351397
 0.36433172
 0.36556249
 0.36722090
 0.36931607
 0.37185331
 0.37483529
 0.37826086
 0.38212125
 0.38639614
 0.39105157
 0.39604034
 0.40130335
 0.40677034
 0.41235978
 0.41797956
 0.42353015
 0.42891048
 0.43402550
 0.43879342
 0.44315093
 0.44705594
 0.45048788
 0.45344685
 0.45595164
 0.45803655
 0.45974658
 0.46113187
 0.46224234
 0.46312341
 0.46381334
 0.46434214
 0.46473213
 0.46500012
 0.46516065
 0.46522907
 0.46522284
 0.46516051
 0.46505904
 0.46493131
 0.46478531
 0.46462466
 0.46444909
 0.46425406
 0.46403052
 0.46376659
 0.46345185
 0.46308235
 0.46266380
 0.46221087
 0.46174303
 0.46127939
 0.46083554
 0.46042301
 0.46005026
 0.45972259
 0.45944095
 0.45920093
 0.45899403
 0.45881099
 0.45864512
 0.45849336
 0.45835551
 0.45823330
 0.45813099
 0.45805699
 0.45802421
 0.45804785
 0.45814146
 0.45831350
 0.45856584
 0.45889443
 0.45929061
 0.45974167
 0.46023037
 0.46073450
 0.46122771
 0.46168201
 0.46207134
 0.46237502
 0.46258026
 0.46268322
 0.46268876
 0.46260935
 0.46246349
 0.46227332
 0.46206174
 0.46184917
 0.46165139
 0.46147972
 0.46134378
 0.46125504
 0.46122945
 0.46128839
 0.46145830
 0.46176889
 0.46224973
 0.46292540
 0.46381040
 0.46490555
 0.46619729
 0.46765983
 0.46925859
 0.47095326
 0.47270030
 0.47445580
 0.47617894
 0.47783540
 0.47939894
 0.48085046
 0.48217533
 0.48336070
 0.48439426
 0.48526445
 0.48596082
 0.48647383
 0.48679455
 0.48691559
 0.48683333
 0.48655014
 0.48607473
 0.48542005
 0.48459996
 0.48362715
 0.48251372
 0.48127391
 0.47992690
 0.47849743
 0.47701406
 0.47550665
 0.47400508
 0.47253997
 0.47114419
 0.46985307
 0.46870181
 0.46772034
 0.46692776
 0.46632880
 0.46591352
 0.46565934
 0.46553360
 0.46549503
 0.46549414
 0.46547408
 0.46537318
 0.46512977
 0.46468904
 0.46401164
 0.46308357
 0.46192673
 0.46060882
 0.45925155
 0.45803680
 0.45721099
 0.45708727
 0.45804333
 0.46051206
 0.46496259
 0.47187233
 0.48169361
 0.49481987
 0.51155506
 0.53208788
 0.55646840
 0.58458367
 0.61612937
 0.65057876
 0.68715341
 0.72480437
 0.76221472
 0.79783523
 0.82996239
 0.85686027
 0.87691753
 0.88881980
 0.89171155
 0.88532054
 0.87002278
 0.84683271
 0.81731281
 0.78340980
 0.74724018
 0.71086231
 0.67607583
 0.64427950
 0.61640023
 0.59288931
 0.57377208
 0.55873272
 0.54721649
 0.53853316
 0.53194908
 0.52675972
 0.52233996
 0.51817435
 0.51387201
 0.50917030
 0.50392946
 0.49811883
 0.49179594
 0.48508196
 0.47813774
 0.47114348
 0.46428274
 0.45772968
 0.45163790
 0.44613030
 0.44129090
 0.43716082
 0.43373922
 0.43098851
 0.42884234
 0.42721456
 0.42600843
 0.42512558
 0.42447402
 0.42397397
 0.42356030
 0.42318213
 0.42280075
 0.42238741
 0.42192170
 0.42139026
 0.42078516
 0.42010205
 0.41933896
 0.41849655
 0.41757929
 0.41659592
 0.41555800
 0.41447726
 0.41336334
 0.41222348
 0.41106354
 0.40988848
 0.40870111
 0.40749979
 0.40627690
 0.40501991
 0.40371458
 0.40234868
 0.40091387
 0.39940512
 0.39781891
 0.39615240
 0.39440464
 0.39257901
 0.39068492
 0.38873773
 0.38675720
 0.38476579
 0.38278763
 0.38084798
 0.37897257
 0.37718651
 0.37551347
 0.37397593
 0.37259658
 0.37140001
 0.37041328
 0.36966517
 0.36918488
 0.36900142
 0.36914387
 0.36964140
 0.37052236
 0.37181233
 0.37353224
 0.37569752
 0.37831850
 0.38140086
 0.38494450
 0.38894056
 0.39336808
 0.39819211
 0.40336405
 0.40882333
 0.41449877
 0.42030910
 0.42616389
 0.43196663
 0.43762024
 0.44303309
 0.44812338
 0.45282126
 0.45706981
 0.46082682
 0.46406776
 0.46678897
 0.46900860
 0.47076383
 0.47210535
 0.47309112
 0.47378098
 0.47423239
 0.47449684
 0.47461717
 0.47462615
 0.47454694
 0.47439538
 0.47418307
 0.47392001
 0.47361591
 0.47328024
 0.47292185
 0.47254875
 0.47216764
 0.47178287
 0.47139546
 0.47100335
 0.47060343
 0.47019435
 0.46977830
 0.46936075
 0.46894881
 0.46854967
 0.46817040
 0.46781888
 0.46750415
 0.46723476
 0.46701592
 0.46684776
 0.46672615
 0.46664579
 0.46660321
 0.46659768
 0.46662932
 0.46669642
 0.46679422
 0.46691633
 0.46705725
 0.46721413
 0.46738630
 0.46757371
 0.46777575
 0.46799159
 0.46822125
 0.46846589
 0.46872646
 0.46900129
 0.46928417
 0.46956442
 0.46982887
 0.47006474
 0.47026201
 0.47041493
 0.47052275
 0.47059016
 0.47062685
 0.47064561
 0.47065947
 0.47067934
 0.47071347
 0.47076890
 0.47085352
 0.47097762
 0.47115477
 0.47140266
 0.47174395
 0.47220595
 0.47281807
 0.47360680
 0.47459021
 0.47577355
 0.47714725
 0.47868673
 0.48035330
 0.48209586
 0.48385456
 0.48556722
 0.48717761
 0.48864273
 0.48993616
 0.49104656
 0.49197296
 0.49271934
 0.49329086
 0.49369218
 0.49392716
 0.49399877
 0.49390872
 0.49365756
 0.49324548
 0.49267326
 0.49194213
 0.49105222
 0.49000144
 0.48878674
 0.48740827
 0.48587498
 0.48420894
 0.48244627
 0.48063436
 0.47882754
 0.47708321
 0.47545902
 0.47400978
 0.47278292
 0.47181277
 0.47111570
 0.47068879
 0.47051233
 0.47055421
 0.47077256
 0.47111521
 0.47151653
 0.47189513
 0.47215504
 0.47219195
 0.47190380
 0.47120413
 0.47003718
 0.46839471
 0.46633400
 0.46399485
 0.46161270
 0.45952529
 0.45817164
 0.45808268
 0.45986223
 0.46415714
 0.47161614
 0.48284029
 0.49833013
 0.51843528
 0.54331022
 0.57287671
 0.60679147
 0.64441884
 0.68481230
 0.72671314
 0.76857637
 0.80863264
 0.84498907
 0.87576524
 0.89925309
 0.91408339
 0.91937642
 0.91485343
 0.90088984
 0.87849834
 0.84923914
 0.81506345
 0.77810871
 0.74047644
 0.70403038
 0.67024742
 0.64013902
 0.61424297
 0.59267131
 0.57519282
 0.56132896
 0.55044810
 0.54184972
 0.53483560
 0.52876687
 0.52310556
 0.51743989
 0.51149358
 0.50512145
 0.49829466
 0.49107902
 0.48360957
 0.47606369
 0.46863564
 0.46151459
 0.45486741
 0.44882639
 0.44348168
 0.43887752
 0.43501202
 0.43184085
 0.42928571
 0.42724648
 0.42561424
 0.42428194
 0.42315134
 0.42213711
 0.42116962
 0.42019728
 0.41918805
 0.41812892
 0.41702275
 0.41588331
 0.41473018
 0.41358478
 0.41246771
 0.41139660
 0.41038393
 0.40943516
 0.40854788
 0.40771210
 0.40691128
 0.40612322
 0.40532104
 0.40447518
 0.40355679
 0.40254169
 0.40141318
 0.40016254
 0.39878779
 0.39729224
 0.39568389
 0.39397508
 0.39218175
 0.39032146
 0.38841081
 0.38646390
 0.38449261
 0.38250845
 0.38052415
 0.37855334
 0.37660846
 0.37469840
 0.37282778
 0.37099835
 0.36921179
 0.36747234
 0.36578867
 0.36417493
 0.36265152
 0.36124540
 0.35998947
 0.35892118
 0.35808102
 0.35751151
 0.35725644
 0.35735962
 0.35786211
 0.35879812
 0.36019082
 0.36205032
 0.36437489
 0.36715513
 0.37037810
 0.37402863
 0.37808670
 0.38252288
 0.38729508
 0.39234815
 0.39761602
 0.40302453
 0.40849383
 0.41394064
 0.41928166
 0.42443852
 0.42934394
 0.43394707
 0.43821662
 0.44214059
 0.44572322
 0.44898009
 0.45193262
 0.45460295
 0.45701030
 0.45916972
 0.46109339
 0.46279315
 0.46428253
 0.46557706
 0.46669321
 0.46764693
 0.46845274
 0.46912346
 0.46966991
 0.47009987
 0.47041649
 0.47061757
 0.47069727
 0.47065035
 0.47047708
 0.47018653
 0.46979691
 0.46933359
 0.46882655
 0.46830821
 0.46781136
 0.46736637
 0.46699774
 0.46672067
 0.46653869
 0.46644268
 0.46641096
 0.46641046
 0.46639945
 0.46633271
 0.46616862
 0.46587651
 0.46544157
 0.46486598
 0.46416643
 0.46337024
 0.46251227
 0.46163304
 0.46077614
 0.45998378
 0.45929106
 0.45872179
 0.45828778
 0.45799100
 0.45782655
 0.45778408
 0.45784787
 0.45799699
 0.45820724
 0.45845485
 0.45872045
 0.45899116
 0.45926019
 0.45952495
 0.45978523
 0.46004224
 0.46029809
 0.46055492
 0.46081335
 0.46107054
 0.46131904
 0.46154682
 0.46173871
 0.46187850
 0.46195145
 0.46194764
 0.46186571
 0.46171574
 0.46151913
 0.46130529
 0.46110668
 0.46095454
 0.46087664
 0.46089694
 0.46103599
 0.46131050
 0.46173186
 0.46230435
 0.46302460
 0.46388256
 0.46486325
 0.46594782
 0.46711336
 0.46833243
 0.46957437
 0.47080886
 0.47201052
 0.47316222
 0.47425587
 0.47529117
 0.47627368
 0.47721317
 0.47812224
 0.47901420
 0.47989962
 0.48078258
 0.48165777
 0.48250953
 0.48331275
 0.48403484
 0.48463821
 0.48508310
 0.48533053
 0.48534565
 0.48510110
 0.48458030
 0.48378067
 0.48271649
 0.48141990
 0.47993885
 0.47833142
 0.47665838
 0.47497624
 0.47333352
 0.47177127
 0.47032579
 0.46903033
 0.46791328
 0.46699399
 0.46627952
 0.46576497
 0.46543757
 0.46528158
 0.46528089
 0.46541832
 0.46567247
 0.46601444
 0.46640608
 0.46680021
 0.46714223
 0.46737254
 0.46743015
 0.46725832
 0.46681264
 0.46607059
 0.46504108
 0.46377305
 0.46236285
 0.46096121
 0.45977943
 0.45909405
 0.45924798
 0.46064608
 0.46374347
 0.46902572
 0.47698111
 0.48806639
 0.50266982
 0.52107684
 0.54344251
 0.56977147
 0.59990197
 0.63348955
 0.66998884
 0.70863703
 0.74844728
 0.78822085
 0.82658298
 0.86204296
 0.89307484
 0.91821404
 0.93616373
 0.94590266
 0.94678433
 0.93861679
 0.92171281
 0.89690054
 0.86548600
 0.82916128
 0.78986096
 0.74958178
 0.71019327
 0.67327315
 0.63999581
 0.61108664
 0.58683733
 0.56716548
 0.55169807
 0.53986193
 0.53096991
 0.52429655
 0.51914016
 0.51486890
 0.51095028
 0.50696548
 0.50261254
 0.49770256
 0.49215205
 0.48597194
 0.47925266
 0.47214525
 0.46483974
 0.45754344
 0.45046125
 0.44377957
 0.43765401
 0.43220070
 0.42749157
 0.42355398
 0.42037494
 0.41790810
 0.41608098
 0.41480098
 0.41396094
 0.41344612
 0.41314305
 0.41294886
 0.41277869
 0.41256938
 0.41227927
 0.41188545
 0.41138011
 0.41076690
 0.41005766
 0.40926951
 0.40842243
 0.40753723
 0.40663365
 0.40572777
 0.40482883
 0.40393689
 0.40304325
 0.40213424
 0.40119683
 0.40022273
 0.39920899
 0.39815576
 0.39706336
 0.39593099
 0.39475712
 0.39354019
 0.39227825
 0.39096840
 0.38960738
 0.38819397
 0.38673162
 0.38522951
 0.38370089
 0.38215916
 0.38061370
 0.37906759
 0.37751895
 0.37596465
 0.37440420
 0.37284205
 0.37128854
 0.36976045
 0.36828169
 0.36688319
 0.36560131
 0.36447475
 0.36354116
 0.36283474
 0.36238528
 0.36221789
 0.36235236
 0.36280249
 0.36357662
 0.36468031
 0.36611987
 0.36790444
 0.37004458
 0.37254776
 0.37541368
 0.37863208
 0.38218346
 0.38604119
 0.39017271
 0.39453910
 0.39909383
 0.40378281
 0.40854681
 0.41332586
 0.41806396
 0.42271265
 0.42723284
 0.43159492
 0.43577745
 0.43976438
 0.44354091
 0.44708957
 0.45038858
 0.45341385
 0.45614352
 0.45856239
 0.46066414
 0.46245099
 0.46393245
 0.46512461
 0.46604983
 0.46673618
 0.46721527
 0.46751891
 0.46767526
 0.46770648
 0.46762859
 0.46745294
 0.46718810
 0.46684181
 0.46642290
 0.46594342
 0.46542051
 0.46487694
 0.46433912
 0.46383298
 0.46337964
 0.46299296
 0.46267957
 0.46243980
 0.46226831
 0.46215407
 0.46208108
 0.46203086
 0.46198638
 0.46193548
 0.46187204
 0.46179452
 0.46170320
 0.46159800
 0.46147795
 0.46134181
 0.46118881
 0.46101936
 0.46083616
 0.46064589
 0.46046072
 0.46029807
 0.46017768
 0.46011675
 0.46012550
 0.46020525
 0.46034934
 0.46054551
 0.46077818
 0.46103011
 0.46128376
 0.46152301
 0.46173533
 0.46191377
 0.46205764
 0.46217140
 0.46226265
 0.46234064
 0.46241548
 0.46249726
 0.46259428
 0.46271134
 0.46284952
 0.46300773
 0.46318461
 0.46337892
 0.46358803
 0.46380589
 0.46402232
 0.46422468
 0.46440121
 0.46454399
 0.46465012
 0.46472077
 0.46475934
 0.46477039
 0.46475972
 0.46473510
 0.46470668
 0.46468650
 0.46468776
 0.46472444
 0.46481106
 0.46496232
 0.46519254
 0.46551508
 0.46594185
 0.46648299
 0.46714600
 0.46793359
 0.46884045
 0.46985055
 0.47093699
 0.47206524
 0.47319892
 0.47430580
 0.47536169
 0.47635133
 0.47726729
 0.47810848
 0.47887928
 0.47958864
 0.48024818
 0.48086878
 0.48145676
 0.48201111
 0.48252308
 0.48297782
 0.48335704
 0.48364163
 0.48381387
 0.48385882
 0.48376463
 0.48352171
 0.48312105
 0.48255291
 0.48180745
 0.48087778
 0.47976458
 0.47847960
 0.47704643
 0.47549880
 0.47387842
 0.47223382
 0.47061948
 0.46909312
 0.46771011
 0.46651605
 0.46554063
 0.46479555
 0.46427691
 0.46397015
 0.46385462
 0.46390561
 0.46409384
 0.46438410
 0.46473447
 0.46509648
 0.46541595
 0.46563459
 0.46569287
 0.46553451
 0.46511278
 0.46439852
 0.46338897
 0.46211667
 0.46065814
 0.45914245
 0.45775930
 0.45676494
 0.45648389
 0.45730450
 0.45966750
 0.46404718
 0.47092510
 0.48075664
 0.49393344
 0.51074644
 0.53135522
 0.55576608
 0.58381627
 0.61515891
 0.64924545
 0.68530842
 0.72235261
 0.75916422
 0.79434480
 0.82637204
 0.85368600
 0.87479786
 0.88841657
 0.89358409
 0.88980215
 0.87712788
 0.85621618
 0.82829239
 0.79504967
 0.75847975
 0.72066160
 0.68354481
 0.64876662
 0.61753159
 0.59056490
 0.56813275
 0.55011148
 0.53608295
 0.52543609
 0.51746084
 0.51142745
 0.50664857
 0.50252428
 0.49857018
 0.49442972
 0.48987334
 0.48478871
 0.47916596
 0.47307979
 0.46666824
 0.46010853
 0.45359157
 0.44729888
 0.44138569
 0.43597184
 0.43113950
 0.42693494
 0.42337185
 0.42043512
 0.41808541
 0.41626474
 0.41490243
 0.41392064
 0.41323929
 0.41278037
 0.41247172
 0.41225007
 0.41206284
 0.41186855
 0.41163619
 0.41134403
 0.41097870
 0.41053440
 0.41001121
 0.40941174
 0.40873714
 0.40798473
 0.40714885
 0.40622393
 0.40520748
 0.40410080
 0.40290750
 0.40163166
 0.40027779
 0.39885305
 0.39736952
 0.39584430
 0.39429642
 0.39274198
 0.39119035
 0.38964295
 0.38809465
 0.38653637
 0.38495772
 0.38334946
 0.38170575
 0.38002617
 0.37831648
 0.37658768
 0.37485374
 0.37313011
 0.37143385
 0.36978526
 0.36820868
 0.36673118
 0.36537967
 0.36417871
 0.36315068
 0.36231758
 0.36170241
 0.36132840
 0.36121657
 0.36138332
 0.36183971
 0.36259260
 0.36364653
 0.36500507
 0.36667107
 0.36864642
 0.37093234
 0.37353034
 0.37644303
 0.37967303
 0.38321926
 0.38707181
 0.39120795
 0.39559095
 0.40017214
 0.40489427
 0.40969467
 0.41450793
 0.41926887
 0.42391638
 0.42839685
 0.43266567
 0.43668655
 0.44042993
 0.44387239
 0.44699748
 0.44979733
 0.45227286
 0.45443181
 0.45628529
 0.45784491
 0.45912198
 0.46012834
 0.46087784
 0.46138763
 0.46167937
 0.46178018
 0.46172300
 0.46154565
 0.46128765
 0.46098597
 0.46067127
 0.46036651
 0.46008758
 0.45984440
 0.45964100
 0.45947507
 0.45933842
 0.45921973
 0.45910852
 0.45899811
 0.45888564
 0.45876967
 0.45864718
 0.45851253
 0.45835878
 0.45818042
 0.45797552
 0.45774619
 0.45749768
 0.45723710
 0.45697213
 0.45670961
 0.45645427
 0.45620792
 0.45597000
 0.45573928
 0.45551629
 0.45530483
 0.45511156
 0.45494402
 0.45480864
 0.45471027
 0.45465303
 0.45464118
 0.45467875
 0.45476786
 0.45490692
 0.45509041
 0.45531071
 0.45556045
 0.45583401
 0.45612744
 0.45643734
 0.45675967
 0.45708918
 0.45741958
 0.45774386
 0.45805475
 0.45834527
 0.45860970
 0.45884410
 0.45904584
 0.45921182
 0.45933639
 0.45941062
 0.45942415
 0.45936933
 0.45924549
 0.45906099
 0.45883207
 0.45857979
 0.45832665
 0.45809405
 0.45790037
 0.45775871
 0.45767451
 0.45764391
 0.45765396
 0.45768515
 0.45771540
 0.45772500
 0.45770136
 0.45764334
 0.45756442
 0.45749378
 0.45747401
 0.45755516
 0.45778624
 0.45820683
 0.45884131
 0.45969679
 0.46076373
 0.46201759
 0.46342040
 0.46492319
 0.46647067
 0.46800799
 0.46948746
 0.47087300
 0.47214146
 0.47328154
 0.47429199
 0.47517935
 0.47595533
 0.47663356
 0.47722594
 0.47774001
 0.47817821
 0.47853897
 0.47881853
 0.47901180
 0.47911200
 0.47910981
 0.47899256
 0.47874382
 0.47834275
 0.47776379
 0.47697773
 0.47595567
 0.47467624
 0.47313506
 0.47135253
 0.46937652
 0.46727838
 0.46514459
 0.46306752
 0.46113744
 0.45943558
 0.45802759
 0.45695714
 0.45624086
 0.45586628
 0.45579440
 0.45596681
 0.45631534
 0.45677187
 0.45727606
 0.45777970
 0.45824654
 0.45864795
 0.45895604
 0.45913743
 0.45915048
 0.45894757
 0.45848196
 0.45771742
 0.45663834
 0.45525964
 0.45363701
 0.45187832
 0.45015560
 0.44871522
 0.44788239
 0.44805751
 0.44970341
 0.45332439
 0.45943849
 0.46854491
 0.48108892
 0.49742763
 0.51780019
 0.54230364
 0.57087201
 0.60325369
 0.63898518
 0.67736474
 0.71743472
 0.75798319
 0.79757360
 0.83460646
 0.86741130
 0.89436275
 0.91401163
 0.92521846
 0.92727444
 0.91999328
 0.90375953
 0.87952227
 0.84872822
 0.81319469
 0.77493422
 0.73595548
 0.69807400
 0.66276470
 0.63107603
 0.60360921
 0.58055202
 0.56174830
 0.54678358
 0.53507132
 0.52593114
 0.51865640
 0.51257094
 0.50707478
 0.50167772
 0.49601946
 0.48987656
 0.48315763
 0.47588867
 0.46819081
 0.46025280
 0.45230144
 0.44457295
 0.43728797
 0.43063179
 0.42474081
 0.41969533
 0.41551871
 0.41218278
 0.40961838
 0.40772848
 0.40640056
 0.40551635
 0.40495861
 0.40461641
 0.40438997
 0.40419535
 0.40396781
 0.40366246
 0.40325208
 0.40272382
 0.40207612
 0.40131654
 0.40045937
 0.39952237
 0.39852266
 0.39747309
 0.39638026
 0.39524495
 0.39406439
 0.39283531
 0.39155651
 0.39023027
 0.38886259
 0.38746259
 0.38604082
 0.38460650
 0.38316405
 0.38171032
 0.38023403
 0.37871742
 0.37713947
 0.37547934
 0.37371945
 0.37184859
 0.36986496
 0.36777866
 0.36561201
 0.36339691
 0.36116993
 0.35896705
 0.35682033
 0.35475744
 0.35280360
 0.35098427
 0.34932716
 0.34786310
 0.34662666
 0.34565651
 0.34499477
 0.34468412
 0.34476326
 0.34526283
 0.34620373
 0.34759838
 0.34945282
 0.35176790
 0.35453822
 0.35774989
 0.36137857
 0.36538913
 0.36973654
 0.37436753
 0.37922259
 0.38423830
 0.38935047
 0.39449753
 0.39962351
 0.40467956
 0.40962404
 0.41442194
 0.41904450
 0.42346886
 0.42767675
 0.43165177
 0.43537603
 0.43882834
 0.44198537
 0.44482570
 0.44733458
 0.44950685
 0.45134666
 0.45286549
 0.45408004
 0.45501154
 0.45568606
 0.45613459
 0.45639158
 0.45649230
 0.45647029
 0.45635621
 0.45617766
 0.45595864
 0.45571830
 0.45546959
 0.45521891
 0.45496661
 0.45470795
 0.45443442
 0.45413582
 0.45380329
 0.45343296
 0.45302854
 0.45260137
 0.45216740
 0.45174254
 0.45133852
 0.45096123
 0.45061167
 0.45028824
 0.44998854
 0.44970987
 0.44944910
 0.44920307
 0.44897014
 0.44875175
 0.44855213
 0.44837562
 0.44822333
 0.44809175
 0.44797419
 0.44786375
 0.44775532
 0.44764584
 0.44753348
 0.44741740
 0.44729849
 0.44718023
 0.44706854
 0.44697046
 0.44689219
 0.44683812
 0.44681105
 0.44681263
 0.44684286
 0.44689874
 0.44697406
 0.44706155
 0.44715695
 0.44726273
 0.44738906
 0.44755128
 0.44776519
 0.44804227
 0.44838648
 0.44879293
 0.44924806
 0.44973080
 0.45021415
 0.45066729
 0.45105853
 0.45135886
 0.45154587
 0.45160739
 0.45154475
 0.45137497
 0.45113067
 0.45085626
 0.45060045
 0.45040763
 0.45031168
 0.45033471
 0.45048977
 0.45078469
 0.45122407
 0.45180909
 0.45253671
 0.45340012
 0.45439026
 0.45549633
 0.45670370
 0.45799008
 0.45932278
 0.46065983
 0.46195582
 0.46316991
 0.46427248
 0.46524810
 0.46609525
 0.46682416
 0.46745436
 0.46801162
 0.46852371
 0.46901485
 0.46950061
 0.46998545
 0.47046402
 0.47092479
 0.47135347
 0.47173477
 0.47205238
 0.47228879
 0.47242554
 0.47244390
 0.47232514
 0.47205003
 0.47159853
 0.47095159
 0.47009617
 0.46903119
 0.46777111
 0.46634524
 0.46479391
 0.46316445
 0.46150822
 0.45987819
 0.45832585
 0.45689763
 0.45563204
 0.45455824
 0.45369601
 0.45305644
 0.45264244
 0.45244896
 0.45246318
 0.45266467
 0.45302511
 0.45350697
 0.45406152
 0.45462737
 0.45513153
 0.45549421
 0.45563745
 0.45549592
 0.45502763
 0.45422344
 0.45311571
 0.45178690
 0.45037802
 0.44909553
 0.44821446
 0.44807620
 0.44908003
 0.45166790
 0.45630308
 0.46344433
 0.47351849
 0.48689457
 0.50386134
 0.52460795
 0.54920472
 0.57758037
 0.60949389
 0.64450375
 0.68194096
 0.72089438
 0.76021511
 0.79854445
 0.83436734
 0.86609189
 0.89215336
 0.91113713
 0.92190904
 0.92373621
 0.91638028
 0.90014797
 0.87588956
 0.84494199
 0.80901970
 0.77006293
 0.73006108
 0.69087514
 0.65408517
 0.62088424
 0.59202946
 0.56784877
 0.54829270
 0.53301431
 0.52146078
 0.51296249
 0.50680994
 0.50231320
 0.49884307
 0.49585679
 0.49291289
 0.48967908
 0.48593473
 0.48156799
 0.47656656
 0.47100191
 0.46500827
 0.45875926
 0.45244576
 0.44625704
 0.44036573
 0.43491627
 0.43001709
 0.42573684
 0.42210486
 0.41911515
 0.41673283
 0.41490193
 0.41355381
 0.41261518
 0.41201482
 0.41168767
 0.41157524
 0.41162297
 0.41177721
 0.41198416
 0.41219211
 0.41235542
 0.41243798
 0.41241436
 0.41226877
 0.41199370
 0.41158934
 0.41106346
 0.41043042
 0.40970876
 0.40891811
 0.40807681
 0.40720113
 0.40630536
 0.40540182
 0.40449993
 0.40360554
 0.40272130
 0.40184783
 0.40098431
 0.40012762
 0.39927067
 0.39840156
 0.39750496
 0.39656531
 0.39557051
 0.39451377
 0.39339290
 0.39220779
 0.39095816
 0.38964311
 0.38826196
 0.38681523
 0.38530480
 0.38373340
 0.38210440
 0.38042258
 0.37869588
 0.37693712
 0.37516555
 0.37340835
 0.37170234
 0.37009497
 0.36864302
 0.36740844
 0.36645232
 0.36582948
 0.36558579
 0.36575777
 0.36637263
 0.36744702
 0.36898492
 0.37097701
 0.37340286
 0.37623526
 0.37944458
 0.38300079
 0.38687282
 0.39102655
 0.39542310
 0.40001824
 0.40476295
 0.40960452
 0.41448796
 0.41935780
 0.42416078
 0.42884855
 0.43337927
 0.43771708
 0.44182974
 0.44568674
 0.44925912
 0.45252149
 0.45545449
 0.45804638
 0.46029340
 0.46219995
 0.46377923
 0.46505398
 0.46605664
 0.46682734
 0.46740962
 0.46784481
 0.46816728
 0.46840219
 0.46856592
 0.46866835
 0.46871519
 0.46870988
 0.46865493
 0.46855284
 0.46840663
 0.46821967
 0.46799515
 0.46773608
 0.46744627
 0.46713184
 0.46680149
 0.46646477
 0.46612907
 0.46579750
 0.46546952
 0.46514388
 0.46482180
 0.46450791
 0.46420857
 0.46392915
 0.46367301
 0.46344290
 0.46324351
 0.46308254
 0.46296950
 0.46291328
 0.46292029
 0.46299415
 0.46313610
 0.46334489
 0.46361599
 0.46394055
 0.46430513
 0.46469219
 0.46508086
 0.46544768
 0.46576792
 0.46601831
 0.46618141
 0.46625008
 0.46622992
 0.46613799
 0.46599836
 0.46583668
 0.46567634
 0.46553718
 0.46543586
 0.46538598
 0.46539669
 0.46547099
 0.46560519
 0.46579044
 0.46601515
 0.46626733
 0.46653611
 0.46681288
 0.46709228
 0.46737301
 0.46765767
 0.46795107
 0.46825728
 0.46857655
 0.46890363
 0.46922817
 0.46953646
 0.46981322
 0.47004298
 0.47021156
 0.47030860
 0.47033097
 0.47028536
 0.47018848
 0.47006471
 0.46994282
 0.46985381
 0.46983061
 0.46990829
 0.47012286
 0.47050748
 0.47108693
 0.47187231
 0.47285839
 0.47402388
 0.47533368
 0.47674199
 0.47819590
 0.47964004
 0.48102213
 0.48229842
 0.48343795
 0.48442443
 0.48525609
 0.48594348
 0.48650602
 0.48696699
 0.48734762
 0.48766165
 0.48791281
 0.48809690
 0.48820736
 0.48824116
 0.48820126
 0.48809440
 0.48792605
 0.48769591
 0.48739645
 0.48701445
 0.48653393
 0.48593908
 0.48521669
 0.48435851
 0.48336338
 0.48223864
 0.48100033
 0.47967219
 0.47828461
 0.47687424
 0.47548326
 0.47415715
 0.47293974
 0.47186695
 0.47096167
 0.47023207
 0.46967378
 0.46927391
 0.46901434
 0.46887316
 0.46882498
 0.46884158
 0.46889359
 0.46895248
 0.46899203
 0.46898906
 0.46892412
 0.46878303
 0.46855956
 0.46825848
 0.46789778
 0.46751032
 0.46714614
 0.46687679
 0.46680146
 0.46705313
 0.46780219
 0.46925596
 0.47165403
 0.47526036
 0.48035338
 0.48721520
 0.49612174
 0.50733572
 0.52110305
 0.53764917
 0.55716829
 0.57979821
 0.60557842
 0.63439513
 0.66592279
 0.69957445
 0.73447375
 0.76945884
 0.80312424
 0.83390126
 0.86017213
 0.88040903
 0.89332416
 0.89801288
 0.89406928
 0.88165524
 0.86150899
 0.83488601
 0.80343547
 0.76902752
 0.73355882
 0.69876894
 0.66609637
 0.63659095
 0.61088549
 0.58921850
 0.57149347
 0.55735846
 0.54629127
 0.53768006
 0.53089305
 0.52533324
 0.52047619
 0.51589173
 0.51125319
 0.50633804
 0.50102317
 0.49527549
 0.48913815
 0.48271310
 0.47614173
 0.46958579
 0.46321032
 0.45716916
 0.45159319
 0.44658144
 0.44219599
 0.43846119
 0.43536730
 0.43287679
 0.43093122
 0.42945734
 0.42837230
 0.42758872
 0.42701994
 0.42658506
 0.42621258
 0.42584223
 0.42542589
 0.42492891
 0.42433205
 0.42363250
 0.42284238
 0.42198423
 0.42108481
 0.42016929
 0.41925740
 0.41836184
 0.41748797
 0.41663398
 0.41579158
 0.41494773
 0.41408738
 0.41319610
 0.41226144
 0.41127318
 0.41022367
 0.40910889
 0.40792946
 0.40669035
 0.40539847
 0.40405896
 0.40267240
 0.40123494
 0.39974192
 0.39819259
 0.39659337
 0.39495802
 0.39330554
 0.39165752
 0.39003658
 0.38846588
 0.38696861
 0.38556665
 0.38427890
 0.38312098
 0.38210709
 0.38125294
 0.38057798
 0.38010556
 0.37986202
 0.37987635
 0.38018111
 0.38081382
 0.38181685
 0.38323460
 0.38510856
 0.38747202
 0.39034631
 0.39373826
 0.39763796
 0.40201657
 0.40682495
 0.41199450
 0.41744052
 0.42306713
 0.42877219
 0.43445135
 0.44000216
 0.44532867
 0.45034678
 0.45498870
 0.45920519
 0.46296519
 0.46625397
 0.46907156
 0.47143145
 0.47335876
 0.47488673
 0.47605222
 0.47689193
 0.47744114
 0.47773503
 0.47781125
 0.47771105
 0.47747795
 0.47715443
 0.47677843
 0.47638107
 0.47598512
 0.47560386
 0.47524007
 0.47488644
 0.47452815
 0.47414769
 0.47373043
 0.47326894
 0.47276489
 0.47222828
 0.47167528
 0.47112547
 0.47059902
 0.47011399
 0.46968398
 0.46931634
 0.46901124
 0.46876174
 0.46855478
 0.46837301
 0.46819730
 0.46800968
 0.46779650
 0.46755092
 0.46727384
 0.46697276
 0.46665942
 0.46634773
 0.46605269
 0.46578974
 0.46557388
 0.46541807
 0.46533145
 0.46531823
 0.46537786
 0.46550620
 0.46569671
 0.46594061
 0.46622601
 0.46653726
 0.46685576
 0.46716250
 0.46744078
 0.46767758
 0.46786343
 0.46799179
 0.46805933
 0.46806724
 0.46802214
 0.46793506
 0.46781831
 0.46768187
 0.46753158
 0.46737012
 0.46719974
 0.46702461
 0.46685161
 0.46668952
 0.46654761
 0.46643487
 0.46636041
 0.46633415
 0.46636661
 0.46646751
 0.46664491
 0.46690561
 0.46725659
 0.46770593
 0.46826239
 0.46893395
 0.46972623
 0.47064117
 0.47167550
 0.47281882
 0.47405198
 0.47534733
 0.47667181
 0.47799225
 0.47928106
 0.48051994
 0.48170075
 0.48282405
 0.48389705
 0.48493139
 0.48594019
 0.48693338
 0.48791203
 0.48886403
 0.48976337
 0.49057353
 0.49125282
 0.49175927
 0.49205393
 0.49210332
 0.49188208
 0.49137574
 0.49058243
 0.48951302
 0.48819002
 0.48664598
 0.48492224
 0.48306825
 0.48114091
 0.47920302
 0.47732016
 0.47555636
 0.47396947
 0.47260721
 0.47150395
 0.47067811
 0.47013054
 0.46984464
 0.46978904
 0.46992196
 0.47019538
 0.47055747
 0.47095308
 0.47132394
 0.47160994
 0.47175224
 0.47169763
 0.47140330
 0.47084202
 0.47000889
 0.46893072
 0.46767712
 0.46637128
 0.46519710
 0.46440201
 0.46429565
 0.46524530
 0.46766701
 0.47201020
 0.47873338
 0.48827159
 0.50099951
 0.51719659
 0.53701942
 0.56048152
 0.58743672
 0.61756119
 0.65033285
 0.68501203
 0.72063079
 0.75599976
 0.78974084
 0.82035162
 0.84630313
 0.86616500
 0.87874556
 0.88322820
 0.87928259
 0.86713027
 0.84754922
 0.82181019
 0.79154917
 0.75859315
 0.72476814
 0.69172256
 0.66079373
 0.63293234
 0.60868526
 0.58822605
 0.57141761
 0.55789102
 0.54712839
 0.53854035
 0.53153176
 0.52555100
 0.52012166
 0.51485875
 0.50947445
 0.50377787
 0.49767210
 0.49114811
 0.48427369
 0.47717674
 0.47002436
 0.46300160
 0.45629258
 0.45006462
 0.44445503
 0.43956081
 0.43543251
 0.43207355
 0.42944469
 0.42747226
 0.42605820
 0.42509055
 0.42445399
 0.42403961
 0.42375278
 0.42351718
 0.42327465
 0.42298223
 0.42260897
 0.42213439
 0.42154836
 0.42085093
 0.42005067
 0.41916141
 0.41819904
 0.41717984
 0.41612006
 0.41503526
 0.41393820
 0.41283609
 0.41172862
 0.41060792
 0.40946054
 0.40827053
 0.40702187
 0.40569963
 0.40429038
 0.40278389
 0.40117650
 0.39947477
 0.39769669
 0.39586918
 0.39402277
 0.39218580
 0.39038059
 0.38862224
 0.38691942
 0.38527618
 0.38369381
 0.38217294
 0.38071547
 0.37932633
 0.37801467
 0.37679459
 0.37568589
 0.37471529
 0.37391812
 0.37333928
 0.37303228
 0.37305624
 0.37347183
 0.37433779
 0.37570783
 0.37762712
 0.38012767
 0.38322309
 0.38690479
 0.39114145
 0.39588189
 0.40105960
 0.40659643
 0.41240455
 0.41838770
 0.42444401
 0.43047076
 0.43636945
 0.44204905
 0.44742673
 0.45242812
 0.45698923
 0.46106088
 0.46461331
 0.46763831
 0.47014743
 0.47216795
 0.47373947
 0.47491262
 0.47574801
 0.47631289
 0.47667428
 0.47689059
 0.47700580
 0.47704867
 0.47703646
 0.47697986
 0.47688619
 0.47676032
 0.47660449
 0.47641838
 0.47620004
 0.47594717
 0.47565828
 0.47533356
 0.47497575
 0.47459056
 0.47418666
 0.47377442
 0.47336400
 0.47296365
 0.47257962
 0.47221792
 0.47188666
 0.47159705
 0.47136193
 0.47119331
 0.47110019
 0.47108789
 0.47115832
 0.47131051
 0.47154069
 0.47184240
 0.47220699
 0.47262452
 0.47308474
 0.47357784
 0.47409483
 0.47462789
 0.47517092
 0.47572012
 0.47627357
 0.47682974
 0.47738548
 0.47793521
 0.47847170
 0.47898806
 0.47947904
 0.47994061
 0.48036798
 0.48075387
 0.48108856
 0.48136179
 0.48156502
 0.48169263
 0.48174179
 0.48171214
 0.48160671
 0.48143378
 0.48120872
 0.48095429
 0.48069972
 0.48047971
 0.48033359
 0.48030369
 0.48043201
 0.48075502
 0.48129824
 0.48207253
 0.48307286
 0.48427913
 0.48565784
 0.48716395
 0.48874349
 0.49033810
 0.49189173
 0.49335824
 0.49470703
 0.49592433
 0.49701034
 0.49797381
 0.49882672
 0.49958046
 0.50024382
 0.50082189
 0.50131489
 0.50171704
 0.50201621
 0.50219500
 0.50223238
 0.50210510
 0.50178885
 0.50126044
 0.50050219
 0.49950813
 0.49828956
 0.49687726
 0.49531947
 0.49367700
 0.49201773
 0.49041217
 0.48892969
 0.48763412
 0.48657759
 0.48579392
 0.48529403
 0.48506531
 0.48507459
 0.48527245
 0.48559671
 0.48597473
 0.48632562
 0.48656423
 0.48660750
 0.48638309
 0.48583949
 0.48495758
 0.48376356
 0.48234276
 0.48085250
 0.47953161
 0.47870452
 0.47877802
 0.48022990
 0.48358875
 0.48940427
 0.49820808
 0.51046757
 0.52653897
 0.54662660
 0.57075313
 0.59874055
 0.63019757
 0.66450899
 0.70082716
 0.73807037
 0.77493589
 0.80993547
 0.84145945
 0.86787337
 0.88764581
 0.89949791
 0.90255665
 0.89648627
 0.88157068
 0.85872462
 0.82942268
 0.79555077
 0.75920093
 0.72244456
 0.68712426
 0.65469797
 0.62615395
 0.60199782
 0.58229889
 0.56677546
 0.55489767
 0.54598982
 0.53932071
 0.53417634
 0.52991362
 0.52599603
 0.52201311
 0.51768616
 0.51286257
 0.50750137
 0.50165292
 0.49543574
 0.48901284
 0.48256885
 0.47628935
 0.47034380
 0.46487311
 0.45998166
 0.45573325
 0.45215057
 0.44921863
 0.44689149
 0.44510134
 0.44376762
 0.44280415
 0.44212436
 0.44164541
 0.44129256
 0.44100334
 0.44072984
 0.44043790
 0.44010372
 0.43970982
 0.43924264
 0.43869244
 0.43805441
 0.43732865
 0.43651855
 0.43562872
 0.43466461
 0.43363401
 0.43254879
 0.43142506
 0.43028100
 0.42913343
 0.42799486
 0.42687225
 0.42576746
 0.42467762
 0.42359469
 0.42250457
 0.42138753
 0.42022068
 0.41898183
 0.41765297
 0.41622273
 0.41468765
 0.41305328
 0.41133498
 0.40955759
 0.40775355
 0.40595963
 0.40421358
 0.40255197
 0.40100966
 0.39962005
 0.39841489
 0.39742362
 0.39667314
 0.39618916
 0.39599869
 0.39613174
 0.39662066
 0.39749752
 0.39879137
 0.40052657
 0.40272185
 0.40538918
 0.40853150
 0.41213998
 0.41619177
 0.42064965
 0.42546351
 0.43057239
 0.43590551
 0.44138213
 0.44691153
 0.45239522
 0.45773239
 0.46282698
 0.46759382
 0.47196225
 0.47587761
 0.47930227
 0.48221702
 0.48462214
 0.48653646
 0.48799334
 0.48903495
 0.48970761
 0.49005975
 0.49014169
 0.49000474
 0.48969870
 0.48926848
 0.48875197
 0.48818016
 0.48757898
 0.48697111
 0.48637660
 0.48581254
 0.48529253
 0.48482653
 0.48442103
 0.48407892
 0.48379913
 0.48357623
 0.48340084
 0.48326138
 0.48314676
 0.48304830
 0.48295996
 0.48287708
 0.48279518
 0.48270983
 0.48261751
 0.48251669
 0.48240864
 0.48229775
 0.48219149
 0.48210003
 0.48203529
 0.48200891
 0.48202987
 0.48210286
 0.48222836
 0.48240373
 0.48262422
 0.48288329
 0.48317260
 0.48348290
 0.48380629
 0.48413882
 0.48448142
 0.48483799
 0.48521139
 0.48559986
 0.48599571
 0.48638671
 0.48675864
 0.48709736
 0.48738961
 0.48762386
 0.48779209
 0.48789255
 0.48793136
 0.48792136
 0.48787838
 0.48781713
 0.48774891
 0.48768184
 0.48762242
 0.48757683
 0.48755091
 0.48754920
 0.48757464
 0.48763021
 0.48772207
 0.48786225
 0.48806927
 0.48836648
 0.48877943
 0.48933300
 0.49004886
 0.49094259
 0.49202055
 0.49327696
 0.49469237
 0.49623453
 0.49786119
 0.49952395
 0.50117202
 0.50275608
 0.50423255
 0.50556822
 0.50674414
 0.50775690
 0.50861640
 0.50934068
 0.50994988
 0.51046111
 0.51088535
 0.51122596
 0.51147839
 0.51163116
 0.51166783
 0.51156950
 0.51131659
 0.51088965
 0.51027029
 0.50944357
 0.50840257
 0.50715371
 0.50572049
 0.50414381
 0.50247857
 0.50078826
 0.49913973
 0.49759914
 0.49622818
 0.49507950
 0.49419167
 0.49358529
 0.49326232
 0.49320858
 0.49339799
 0.49379606
 0.49436137
 0.49504586
 0.49579545
 0.49655216
 0.49725711
 0.49785344
 0.49828836
 0.49851457
 0.49849233
 0.49819322
 0.49760612
 0.49674499
 0.49565777
 0.49443597
 0.49322484
 0.49223279
 0.49173796
 0.49208926
 0.49369975
 0.49703150
 0.50257277
 0.51080905
 0.52219086
 0.53710132
 0.55582615
 0.57852672
 0.60521442
 0.63572391
 0.66968302
 0.70648157
 0.74524636
 0.78483413
 0.82385440
 0.86072908
 0.89378706
 0.92138534
 0.94204397
 0.95458157
 0.95823752
 0.95276686
 0.93849322
 0.91630694
 0.88759947
 0.85413453
 0.81787033
 0.78076078
 0.74457032
 0.71073174
 0.68026321
 0.65374615
 0.63135533
 0.61292656
 0.59804550
 0.58614111
 0.57657076
 0.56868996
 0.56190437
 0.55570535
 0.54969062
 0.54357198
 0.53717224
 0.53041482
 0.52330958
 0.51593672
 0.50842911
 0.50095195
 0.49368081
 0.48678054
 0.48038897
 0.47460735
 0.46949743
 0.46508267
 0.46135177
 0.45826378
 0.45575521
 0.45374893
 0.45216329
 0.45091931
 0.44994448
 0.44917364
 0.44854848
 0.44801700
 0.44753291
 0.44705503
 0.44654666
 0.44597560
 0.44531540
 0.44454745
 0.44366237
 0.44265972
 0.44154539
 0.44032847
 0.43901939
 0.43763026
 0.43617633
 0.43467614
 0.43314965
 0.43161525
 0.43008777
 0.42857841
 0.42709611
 0.42564860
 0.42424169
 0.42287678
 0.42154796
 0.42024076
 0.41893340
 0.41759990
 0.41621364
 0.41475089
 0.41319467
 0.41153855
 0.40978912
 0.40796551
 0.40609574
 0.40421172
 0.40234536
 0.40052702
 0.39878583
 0.39715033
 0.39564885
 0.39430935
 0.39315974
 0.39222900
 0.39154817
 0.39114994
 0.39106603
 0.39132344
 0.39194179
 0.39293348
 0.39430600
 0.39606408
 0.39820979
 0.40074060
 0.40364707
 0.40691190
 0.41051124
 0.41441740
 0.41860207
 0.42303861
 0.42770353
 0.43257689
 0.43764083
 0.44287615
 0.44825703
 0.45374596
 0.45929122
 0.46482804
 0.47028265
 0.47557701
 0.48063312
 0.48537715
 0.48974433
 0.49368395
 0.49716271
 0.50016519
 0.50269169
 0.50475512
 0.50637917
 0.50759821
 0.50845770
 0.50901282
 0.50932421
 0.50945255
 0.50945391
 0.50937750
 0.50926489
 0.50914939
 0.50905453
 0.50899191
 0.50896012
 0.50894633
 0.50893066
 0.50889197
 0.50881309
 0.50868382
 0.50850159
 0.50827041
 0.50799876
 0.50769693
 0.50737431
 0.50703750
 0.50668960
 0.50633065
 0.50595874
 0.50557149
 0.50516739
 0.50474682
 0.50431329
 0.50387455
 0.50344298
 0.50303398
 0.50266266
 0.50234046
 0.50207385
 0.50186536
 0.50171516
 0.50162158
 0.50158009
 0.50158251
 0.50161795
 0.50167592
 0.50174975
 0.50183807
 0.50194332
 0.50206878
 0.50221629
 0.50238612
 0.50257828
 0.50279321
 0.50303078
 0.50328853
 0.50356103
 0.50384117
 0.50412241
 0.50440045
 0.50467368
 0.50494253
 0.50520878
 0.50547501
 0.50574404
 0.50601815
 0.50629810
 0.50658261
 0.50686831
 0.50714976
 0.50741893
 0.50766419
 0.50787032
 0.50802046
 0.50810065
 0.50810601
 0.50804659
 0.50795073
 0.50786434
 0.50784585
 0.50795823
 0.50826001
 0.50879663
 0.50959307
 0.51064861
 0.51193513
 0.51340030
 0.51497568
 0.51658697
 0.51816338
 0.51964401
 0.52098199
 0.52214788
 0.52313255
 0.52394786
 0.52462293
 0.52519586
 0.52570342
 0.52617218
 0.52661325
 0.52702099
 0.52737452
 0.52764105
 0.52778019
 0.52774891
 0.52750674
 0.52702101
 0.52627164
 0.52525516
 0.52398771
 0.52250632
 0.52086787
 0.51914476
 0.51741737
 0.51576477
 0.51425579
 0.51294215
 0.51185493
 0.51100435
 0.51038239
 0.50996723
 0.50972867
 0.50963409
 0.50965408
 0.50976629
 0.50995600
 0.51021280
 0.51052496
 0.51087386
 0.51123075
 0.51155621
 0.51180173
 0.51191283
 0.51183428
 0.51151847
 0.51093692
 0.51009320
 0.50903455
 0.50786030
 0.50672677
 0.50585002
 0.50550641
 0.50603017
 0.50780635
 0.51125805
 0.51682774
 0.52495389
 0.53604558
 0.55045798
 0.56846942
 0.59025778
 0.61587264
 0.64520117
 0.67792971
 0.71350722
 0.75111860
 0.78967704
 0.82784398
 0.86408286
 0.89674711
 0.92419636
 0.94492966
 0.95772156
 0.96174638
 0.95667609
 0.94273821
 0.92072230
 0.89192722
 0.85804952
 0.82102413
 0.78283899
 0.74535183
 0.71013596
 0.67837399
 0.65080807
 0.62774560
 0.60911133
 0.59453077
 0.58342623
 0.57510895
 0.56885667
 0.56397360
 0.55983394
 0.55591191
 0.55179972
 0.54721473
 0.54199671
 0.53609787
 0.52956784
 0.52253553
 0.51518784
 0.50774550
 0.50043749
 0.49347734
 0.48704458
 0.48127337
 0.47624795
 0.47200331
 0.46852900
 0.46577549
 0.46366275
 0.46209097
 0.46095212
 0.46014083
 0.45956280
 0.45914015
 0.45881358
 0.45854125
 0.45829490
 0.45805436
 0.45780196
 0.45751922
 0.45718676
 0.45678730
 0.45630927
 0.45574903
 0.45511036
 0.45440215
 0.45363570
 0.45282293
 0.45197574
 0.45110550
 0.45022198
 0.44933175
 0.44843709
 0.44753596
 0.44662282
 0.44568964
 0.44472672
 0.44372360
 0.44266995
 0.44155641
 0.44037455
 0.43911575
 0.43776979
 0.43632483
 0.43476964
 0.43309762
 0.43131038
 0.42941919
 0.42744334
 0.42540651
 0.42333348
 0.42124919
 0.41918016
 0.41715598
 0.41520865
 0.41336950
 0.41166620
 0.41012212
 0.40875827
 0.40759637
 0.40666081
 0.40597885
 0.40557950
 0.40549202
 0.40574453
 0.40636232
 0.40736556
 0.40876721
 0.41057219
 0.41277835
 0.41537793
 0.41835793
 0.42169841
 0.42537006
 0.42933342
 0.43354069
 0.43793907
 0.44247313
 0.44708500
 0.45171374
 0.45629641
 0.46077226
 0.46508868
 0.46920629
 0.47310101
 0.47676287
 0.48019309
 0.48340099
 0.48640133
 0.48921135
 0.49184694
 0.49431874
 0.49662955
 0.49877365
 0.50073778
 0.50250318
 0.50404828
 0.50535227
 0.50639925
 0.50718285
 0.50770953
 0.50799886
 0.50808014
 0.50798715
 0.50775419
 0.50741484
 0.50700294
 0.50655309
 0.50609901
 0.50567015
 0.50528847
 0.50496714
 0.50471092
 0.50451752
 0.50437881
 0.50428239
 0.50421359
 0.50415814
 0.50410406
 0.50404226
 0.50396614
 0.50387153
 0.50375785
 0.50362977
 0.50349771
 0.50337557
 0.50327621
 0.50320682
 0.50316656
 0.50314757
 0.50313836
 0.50312741
 0.50310537
 0.50306557
 0.50300424
 0.50292135
 0.50282174
 0.50271515
 0.50261481
 0.50253515
 0.50248973
 0.50249022
 0.50254574
 0.50266164
 0.50283755
 0.50306555
 0.50333025
 0.50361161
 0.50388908
 0.50414486
 0.50436494
 0.50453903
 0.50466115
 0.50473167
 0.50475963
 0.50476278
 0.50476437
 0.50478753
 0.50485026
 0.50496303
 0.50512893
 0.50534476
 0.50560120
 0.50588256
 0.50616729
 0.50643037
 0.50664707
 0.50679641
 0.50686323
 0.50683922
 0.50672357
 0.50652350
 0.50625377
 0.50593440
 0.50558727
 0.50523291
 0.50488910
 0.50457152
 0.50429547
 0.50407710
 0.50393325
 0.50388061
 0.50393554
 0.50411508
 0.50443788
 0.50492309
 0.50558642
 0.50643447
 0.50746013
 0.50864121
 0.50994301
 0.51132325
 0.51273748
 0.51414334
 0.51550360
 0.51678797
 0.51797370
 0.51904431
 0.51998663
 0.52078746
 0.52143146
 0.52190162
 0.52218166
 0.52225888
 0.52212574
 0.52178013
 0.52122486
 0.52046681
 0.51951598
 0.51838417
 0.51708380
 0.51562810
 0.51403308
 0.51232071
 0.51052120
 0.50867267
 0.50681810
 0.50500126
 0.50326410
 0.50164628
 0.50018555
 0.49891675
 0.49786841
 0.49705806
 0.49648855
 0.49614701
 0.49600709
 0.49603321
 0.49618549
 0.49642401
 0.49671245
 0.49702020
 0.49732242
 0.49759774
 0.49782453
 0.49797758
 0.49802724
 0.49794179
 0.49769271
 0.49726097
 0.49664365
 0.49586130
 0.49496704
 0.49405707
 0.49328070
 0.49284653
 0.49302269
 0.49413012
 0.49652964
 0.50060355
 0.50673333
 0.51527579
 0.52654111
 0.54077581
 0.55815192
 0.57875971
 0.60259829
 0.62955773
 0.65939022
 0.69167470
 0.72578388
 0.76086394
 0.79583494
 0.82941736
 0.86018705
 0.88665867
 0.90739495
 0.92113471
 0.92692695
 0.92425221
 0.91311087
 0.89406145
 0.86819745
 0.83705866
 0.80248314
 0.76641879
 0.73072503
 0.69699924
 0.66645574
 0.63986949
 0.61758092
 0.59954724
 0.58542239
 0.57464948
 0.56655318
 0.56042291
 0.55557990
 0.55142481
 0.54746585
 0.54333080
 0.53876776
 0.53363834
 0.52790495
 0.52161335
 0.51487157
 0.50782821
 0.50065312
 0.49352230
 0.48660643
 0.48006084
 0.47401601
 0.46856951
 0.46378143
 0.45967452
 0.45623859
 0.45343725
 0.45121476
 0.44950147
 0.44821866
 0.44728348
 0.44661395
 0.44613266
 0.44576867
 0.44545861
 0.44514845
 0.44479594
 0.44437207
 0.44386007
 0.44325212
 0.44254645
 0.44174616
 0.44085996
 0.43990296
 0.43889563
 0.43786016
 0.43681549
 0.43577372
 0.43474010
 0.43371586
 0.43270180
 0.43170011
 0.43071380
 0.42974472
 0.42879180
 0.42784980
 0.42690859
 0.42595274
 0.42496227
 0.42391481
 0.42278900
 0.42156810
 0.42024208
 0.41880773
 0.41726725
 0.41562684
 0.41389627
 0.41208921
 0.41022307
 0.40831768
 0.40639342
 0.40447016
 0.40256798
 0.40070894
 0.39891830
 0.39722409
 0.39565522
 0.39423952
 0.39300259
 0.39196740
 0.39115390
 0.39057787
 0.39024967
 0.39017437
 0.39035364
 0.39078832
 0.39147960
 0.39242848
 0.39363505
 0.39509944
 0.39682499
 0.39882165
 0.40110666
 0.40370133
 0.40662562
 0.40989343
 0.41351013
 0.41747201
 0.42176582
 0.42636714
 0.43123852
 0.43632896
 0.44157575
 0.44690763
 0.45224806
 0.45751803
 0.46263902
 0.46753658
 0.47214452
 0.47640857
 0.48028773
 0.48375323
 0.48678623
 0.48937694
 0.49152575
 0.49324563
 0.49456339
 0.49551832
 0.49615856
 0.49653676
 0.49670666
 0.49672104
 0.49663044
 0.49648128
 0.49631297
 0.49615510
 0.49602636
 0.49593549
 0.49588266
 0.49586002
 0.49585191
 0.49583632
 0.49578825
 0.49568419
 0.49550560
 0.49524013
 0.49488127
 0.49442791
 0.49388514
 0.49326576
 0.49259107
 0.49188962
 0.49119367
 0.49053457
 0.48993832
 0.48942250
 0.48899505
 0.48865504
 0.48839479
 0.48820240
 0.48806404
 0.48796501
 0.48789000
 0.48782289
 0.48774735
 0.48764901
 0.48751885
 0.48735635
 0.48717041
 0.48697681
 0.48679367
 0.48663698
 0.48651833
 0.48644490
 0.48642032
 0.48644498
 0.48651567
 0.48662571
 0.48676620
 0.48692779
 0.48710182
 0.48728023
 0.48745492
 0.48761758
 0.48776072
 0.48787894
 0.48796919
 0.48802969
 0.48805892
 0.48805598
 0.48802231
 0.48796387
 0.48789187
 0.48782136
 0.48776805
 0.48774476
 0.48775924
 0.48781383
 0.48790648
 0.48803235
 0.48818513
 0.48835826
 0.48854582
 0.48874277
 0.48894392
 0.48914199
 0.48932656
 0.48948554
 0.48960903
 0.48969310
 0.48974074
 0.48975935
 0.48975693
 0.48974001
 0.48971424
 0.48968609
 0.48966392
 0.48965740
 0.48967643
 0.48973109
 0.48983356
 0.49000105
 0.49025730
 0.49063087
 0.49115025
 0.49183761
 0.49270319
 0.49374184
 0.49493216
 0.49623841
 0.49761453
 0.49901017
 0.50037763
 0.50167814
 0.50288519
 0.50398438
 0.50497131
 0.50584928
 0.50662785
 0.50732187
 0.50794966
 0.50852925
 0.50907325
 0.50958460
 0.51005528
 0.51046859
 0.51080344
 0.51103804
 0.51115149
 0.51112369
 0.51093500
 0.51056672
 0.51000227
 0.50922905
 0.50824120
 0.50704305
 0.50565251
 0.50410212
 0.50243661
 0.50070733
 0.49896625
 0.49726229
 0.49564112
 0.49414639
 0.49281967
 0.49169703
 0.49080344
 0.49014772
 0.48972104
 0.48949979
 0.48945126
 0.48953973
 0.48973092
 0.48999424
 0.49030263
 0.49063011
 0.49094788
 0.49122065
 0.49140549
 0.49145468
 0.49132196
 0.49097058
 0.49038164
 0.48956242
 0.48855551
 0.48744882
 0.48638549
 0.48557124
 0.48527719
 0.48583665
 0.48763630
 0.49110221
 0.49668116
 0.50481627
 0.51591633
 0.53032081
 0.54826524
 0.56985156
 0.59502478
 0.62355310
 0.65500755
 0.68874111
 0.72387309
 0.75928870
 0.79366444
 0.82552606
 0.85333944
 0.87562839
 0.89110827
 0.89882116
 0.89825498
 0.88942628
 0.87290781
 0.84978921
 0.82157127
 0.79000822
 0.75692336
 0.72402916
 0.69277924
 0.66427049
 0.63920122
 0.61788146
 0.60028334
 0.58611559
 0.57490588
 0.56607904
 0.55902399
 0.55314781
 0.54791690
 0.54288565
 0.53771252
 0.53216475
 0.52611431
 0.51952827
 0.51245599
 0.50501411
 0.49736914
 0.48971784
 0.48226611
 0.47520878
 0.46871257
 0.46290366
 0.45786017
 0.45360917
 0.45012877
 0.44735535
 0.44519504
 0.44353691
 0.44226508
 0.44126822
 0.44044646
 0.43971649
 0.43901507
 0.43830053
 0.43755155
 0.43676292
 0.43593960
 0.43509100
 0.43422721
 0.43335740
 0.43248924
 0.43162792
 0.43077481
 0.42992672
 0.42907636
 0.42821347
 0.42732553
 0.42639769
 0.42541239
 0.42435003
 0.42319117
 0.42192005
 0.42052804
 0.41901544
 0.41739108
 0.41567070
 0.41387487
 0.41202678
 0.41014937
 0.40826201
 0.40637791
 0.40450366
 0.40264089
 0.40078854
 0.39894373
 0.39710097
 0.39525132
 0.39338364
 0.39148901
 0.38956659
 0.38762782
 0.38569665
 0.38380690
 0.38199897
 0.38031783
 0.37881195
 0.37753232
 0.37653073
 0.37585743
 0.37555853
 0.37567386
 0.37623503
 0.37726318
 0.37876655
 0.38073921
 0.38316211
 0.38600646
 0.38923792
 0.39281946
