1005
1005
1005
1005
1005
1005
1005
1005
1002
996
996
997
1001
1002
997
994
988
989
992
994
992
990
987
988
989
993
990
985
982
989
995
997
999
995
991
993
997
1000
1002
1002
999
1000
1000
1004
1018
1039
1064
1087
1105
1120
1138
1156
1187
1225
1272
1317
1364
1406
1435
1444
1433
1394
1318
1233
1173
1143
1124
1117
1111
1107
1103
1099
1094
1084
1073
1060
1051
1047
1047
1039
1029
1020
1010
1004
998
993
984
975
969
966
967
969
966
963
959
959
960
958
956
954
954
955
956
956
954
952
951
949
949
952
951
945
946
945
947
943
940
939
936
936
936
934
931
932
926
929
931
928
922
918
913
912
919
917
912
906
900
907
910
912
909
907
905
911
916
919
922
919
921
930
935
942
944
946
950
955
964
966
974
977
978
980
986
991
992
992
991
994
994
994
993
991
992
993
994
993
993
991
992
995
991
991
990
989
989
992
993
993
990
983
985
987
991
989
986
984
983
987
991
993
990
985
981
983
985
986
986
985
983
985
987
987
985
987
983
985
984
990
989
986
985
987
990
987
988
988
989
989
991
991
988
986
984
986
992
991
984
985
985
988
988
992
987
983
983
982
987
987
986
983
980
982
986
990
988
985
982
984
987
985
987
986
986
989
990
992
989
988
989
991
995
996
994
986
987
998
1006
1002
1003
999
996
1001
1004
1004
1003
996
992
993
995
992
992
989
990
989
994
992
989
986
983
984
986
986
983
984
983
986
988
982
981
981
978
981
985
987
985
983
982
988
993
996
994
990
989
991
995
997
997
992
990
995
1009
1035
1060
1079
1096
1116
1137
1158
1183
1208
1236
1272
1308
1351
1385
1414
1434
1441
1429
1396
1333
1261
1198
1163
1144
1135
1123
1116
1111
1108
1107
1102
1090
1076
1068
1061
1056
1047
1036
1026
1021
1014
1009
1001
992
982
976
971
974
967
961
952
948
948
952
953
951
947
941
941
942
941
940
938
938
940
942
939
937
930
931
932
935
936
932
928
927
927
926
927
922
917
913
914
918
921
917
910
911
909
907
907
906
901
898
895
897
896
890
889
887
892
895
892
885
882
882
887
889
891
890
889
887
889
893
899
904
900
904
909
916
918
923
925
931
938
946
953
957
958
962
970
971
972
970
970
971
977
985
985
982
977
978
980
985
985
982
980
980
982
984
983
982
982
982
981
985
985
983
981
981
982
986
983
982
980
978
981
985
985
982
977
976
977
978
981
981
978
975
976
978
978
977
973
977
976
980
977
976
976
975
980
979
981
979
976
974
977
983
984
980
979
978
981
984
984
982
982
981
982
983
984
984
982
981
983
987
984
981
979
983
985
986
987
987
982
979
979
987
988
988
981
975
978
983
987
986
983
982
986
986
987
983
982
980
983
986
986
987
984
983
989
993
997
990
991
991
994
999
1002
999
998
998
999
998
999
999
996
995
999
998
995
992
988
988
988
992
996
993
990
984
983
989
986
985
981
981
981
981
981
981
980
982
985
987
985
983
982
986
991
993
993
991
988
989
992
997
998
996
994
995
995
999
1003
1009
1017
1037
1061
1086
1106
1127
1143
1165
1190
1219
1249
1277
1310
1350
1392
1424
1437
1434
1415
1379
1328
1265
1205
1158
1128
1113
1112
1115
1114
1106
1097
1087
1077
1069
1063
1053
1044
1037
1031
1020
1012
1004
994
990
983
981
978
972
962
957
961
964
961
959
956
954
958
958
955
950
947
945
952
956
955
953
947
944
943
948
946
944
942
935
938
940
940
941
937
933
934
933
934
929
925
925
923
925
922
917
914
914
914
914
912
906
900
901
900
900
901
900
897
893
894
901
904
901
900
898
901
905
911
912
916
920
925
930
937
942
946
949
954
960
968
969
970
973
979
986
987
989
985
983
988
990
994
993
992
988
988
993
994
992
992
993
990
989
996
995
993
992
992
995
995
991
990
988
989
993
995
992
988
986
988
991
993
995
990
988
989
991
992
987
985
981
988
991
990
989
988
988
988
992
994
991
986
984
987
990
992
991
986
991
990
993
994
993
991
991
991
993
994
990
986
989
991
995
995
993
989
988
989
995
994
996
988
988
988
992
994
993
991
990
991
993
995
991
988
987
989
994
994
992
989
985
993
996
999
997
988
988
991
993
992
992
993
994
995
998
998
996
995
994
1000
1003
1007
1004
1004
1000
1003
1010
1009
1006
1004
1000
1001
1004
1001
999
998
995
993
993
995
997
993
990
990
991
991
988
986
984
987
988
989
984
983
985
985
989
991
989
986
985
987
990
992
990
990
991
994
996
999
995
995
997
997
1000
999
997
994
994
1010
1028
1048
1069
1082
1097
1114
1130
1144
1161
1185
1217
1258
1302
1345
1384
1408
1415
1408
1376
1324
1254
1193
1153
1138
1131
1123
1121
1111
1103
1097
1094
1083
1071
1057
1052
1041
1040
1030
1022
1000
997
998
993
985
977
970
968
966
964
963
959
958
958
960
958
955
954
952
953
953
955
952
948
943
944
946
948
947
942
936
942
945
945
944
940
937
934
934
934
933
930
929
923
927
924
926
922
920
920
920
920
916
912
908
909
908
908
905
901
899
903
905
907
902
898
898
903
909
912
913
913
913
920
926
930
938
936
939
944
949
955
961
964
966
973
978
978
982
983
983
988
987
991
988
987
989
991
996
993
993
986
988
988
992
993
992
987
987
989
992
993
991
990
986
988
990
990
988
988
986
988
991
992
991
984
983
984
990
987
990
983
984
987
990
990
989
986
984
988
986
986
987
985
984
986
989
990
986
985
984
985
989
990
987
983
983
986
990
990
990
989
989
988
990
992
993
990
991
992
992
991
992
989
986
992
994
997
995
991
989
989
991
992
991
989
988
990
989
990
991
988
988
989
989
990
990
984
986
987
992
993
995
990
987
985
991
991
995
991
990
992
994
997
997
997
994
998
1000
1003
1001
1001
995
998
1003
1008
1005
1004
1000
1001
1003
1004
1004
997
992
994
998
997
999
999
996
996
995
995
992
988
988
988
988
988
988
987
988
989
996
994
990
985
982
986
991
995
996
991
991
991
994
996
999
998
996
995
999
1001
1001
999
998
1012
1035
1059
1085
1105
1129
1154
1182
1217
1258
1295
1335
1373
1405
1424
1430
1423
1412
1393
1354
1291
1224
1172
1141
1130
1125
1121
1117
1107
1095
1087
1081
1075
1070
1061
1054
1050
1042
1036
1024
1013
1004
997
989
985
977
971
967
966
967
968
963
958
957
955
955
960
959
954
954
949
952
953
951
950
945
946
947
944
942
942
942
945
943
944
942
935
933
934
937
936
931
930
921
922
922
924
921
920
918
920
922
921
917
913
907
909
911
909
906
899
897
898
902
901
899
892
893
894
895
896
897
897
900
900
903
905
905
906
912
917
923
927
929
931
930
940
945
951
951
956
959
963
968
972
974
979
980
984
991
994
991
992
993
995
998
1000
992
992
991
992
995
999
998
995
991
993
996
998
998
994
993
994
996
995
993
991
989
994
995
997
997
992
990
991
994
997
994
993
990
991
990
997
992
992
992
994
995
995
991
990
990
992
995
998
994
989
990
990
992
994
994
992
991
992
994
995
995
988
993
994
993
998
994
990
992
996
994
997
996
995
993
994
1000
1004
1001
997
998
998
1000
998
998
998
995
997
1000
999
1001
996
996
997
999
999
999
996
996
998
1002
1008
1003
1003
999
998
998
1006
1004
1003
1003
1006
1008
1010
1010
1008
1008
1006
1013
1015
1011
1010
1008
1011
1013
1015
1011
1005
1002
1004
1008
1009
1006
1001
999
999
1001
1002
999
996
993
995
992
992
994
992
994
993
994
995
994
992
994
992
996
998
997
997
997
999
1004
1005
1001
1000
1001
1004
1007
1008
1004
1002
1012
1037
1069
1088
1101
1111
1128
1156
1193
1235
1276
1316
1358
1400
1427
1433
1420
1381
1318
1249
1191
1157
1133
1116
1107
1103
1106
1105
1095
1084
1076
1067
1062
1056
1046
1039
1028
1026
1019
1014
1007
997
990
986
984
980
975
969
964
965
966
970
966
962
957
961
963
966
960
956
956
953
957
960
957
953
952
951
951
948
951
948
948
946
946
947
946
940
940
942
940
938
935
930
929
930
931
930
923
918
918
918
922
922
919
915
911
908
910
913
912
906
904
907
910
914
916
914
916
920
925
931
932
933
937
945
950
957
960
964
969
974
983
986
988
984
989
991
995
998
1001
997
996
997
1000
1002
1001
1001
996
996
1000
1000
998
995
998
997
998
999
999
996
994
997
1000
1001
997
994
992
995
998
1000
997
996
992
991
995
997
997
997
995
994
995
999
999
995
995
996
1000
998
995
991
994
996
997
997
996
995
992
996
998
1002
999
998
995
996
1001
1003
1000
1000
996
998
1000
1002
1002
1000
1000
1002
1003
1001
1001
997
997
998
1003
1001
999
994
996
996
1001
1000
1000
994
993
995
997
999
1001
998
997
998
1000
1002
1002
998
999
998
1001
1006
1007
1004
1004
1009
1011
1012
1010
1010
1011
1013
1014
1019
1014
1014
1012
1016
1017
1018
1010
1007
1004
1004
1008
1010
1009
1007
999
998
999
1003
999
996
993
993
991
997
997
996
996
996
997
997
995
994
991
995
997
1002
1002
998
1000
1004
1006
1007
1007
1006
1004
1008
1012
1021
1033
1055
1080
1101
1124
1145
1167
1196
1232
1270
1301
1332
1358
1387
1416
1436
1439
1425
1383
1315
1244
1185
1155
1141
1131
1126
1118
1113
1108
1102
1092
1082
1074
1062
1057
1047
1038
1025
1013
1011
1003
998
987
978
976
971
973
970
973
967
963
962
964
965
961
958
957
957
962
963
958
954
951
954
953
952
949
948
949
949
949
951
947
942
940
942
944
944
939
932
931
934
936
938
933
929
924
925
926
926
924
920
915
915
916
917
915
911
908
907
909
911
914
910
909
910
911
914
918
919
921
928
936
938
939
944
948
955
961
966
961
968
969
976
984
988
987
984
983
989
992
999
997
993
993
992
995
996
995
994
991
993
994
995
992
990
992
995
998
997
993
992
994
996
998
998
992
992
989
992
994
996
996
991
988
986
990
993
992
989
982
986
988
992
990
987
988
991
991
993
987
986
986
989
991
991
987
985
985
991
995
995
994
987
985
987
988
990
993
990
988
988
992
995
992
991
988
990
988
992
989
989
991
993
994
998
996
994
998
1002
1003
1006
1009
1012
1014
1019
1026
1035
1041
1044
1054
1069
1091
1109
1131
1140
1146
1157
1172
1181
1194
1202
1210
1219
1222
1225
1219
1210
1193
1158
1089
1002
902
822
765
731
704
689
680
682
692
699
709
718
734
748
757
761
768
778
787
791
797
805
814
820
818
818
817
819
828
837
850
862
877
896
917
932
952
963
971
978
985
993
996
1001
1003
1006
1012
1014
1014
1019
1020
1023
1030
1035
1038
1039
1039
1041
1045
1046
1051
1057
1062
1068
1073
1078
1082
1086
1092
1100
1107
1112
1119
1120
1127
1131
1139
1144
1150
1154
1159
1163
1174
1181
1183
1185
1186
1192
1199
1202
1201
1198
1195
1195
1200
1202
1198
1191
1184
1183
1183
1177
1173
1164
1155
1150
1149
1145
1137
1127
1117
1110
1104
1097
1086
1077
1068
1060
1055
1050
1045
1039
1030
1022
1026
1022
1020
1016
1012
1011
1011
1009
1007
1003
999
1003
1005
1005
1000
998
998
997
1003
1003
998
995
991
991
997
996
996
992
990
989
992
996
991
992
989
988
993
995
996
992
988
986
988
988
988
990
990
991
989
987
988
986
987
990
992
990
988
983
986
990
993
993
993
990
987
988
989
991
989
986
984
983
987
989
990
989
985
985
987
990
990
988
984
984
987
990
988
988
988
988
990
990
988
985
981
983
986
988
988
986
984
987
989
989
987
980
981
982
989
990
988
986
981
982
987
988
988
985
981
984
987
992
992
989
987
987
989
992
991
986
987
987
990
990
990
990
987
987
990
991
992
991
992
997
1001
1005
1001
1000
998
1001
1004
1006
1004
1004
1003
1006
1008
1010
1006
1002
1002
1004
1004
1009
1003
996
990
992
996
996
991
989
986
987
988
988
991
991
988
986
990
989
989
989
987
989
991
994
991
990
990
993
997
999
998
995
993
999
1012
1035
1059
1077
1100
1127
1155
1190
1229
1270
1312
1356
1398
1426
1438
1441
1433
1418
1374
1299
1214
1149
1118
1109
1104
1101
1093
1078
1069
1060
1056
1048
1041
1036
1030
1026
1023
1015
1001
993
985
981
978
973
966
957
955
958
962
963
958
953
945
943
948
951
949
947
943
944
946
948
946
941
939
940
943
946
944
939
939
935
936
936
934
929
930
931
929
927
925
923
919
923
924
921
915
910
909
911
913
908
905
902
898
900
903
903
898
894
895
894
900
904
904
902
902
908
916
924
926
928
932
934
942
949
954
957
958
964
970
978
983
984
984
988
993
992
996
995
994
992
995
996
997
992
993
993
995
998
992
990
989
992
993
994
991
987
987
988
992
993
995
988
986
990
993
997
992
988
986
991
993
996
994
992
987
991
995
996
996
993
994
990
992
994
993
995
995
994
997
998
998
997
996
996
1000
1000
998
994
991
993
997
996
997
990
993
994
995
999
995
993
991
991
993
997
991
989
987
990
994
995
994
989
993
993
997
1001
1002
1001
1001
1006
1008
1011
1011
1008
1006
1008
1010
1013
1012
1009
1008
1012
1011
1011
1011
1005
1003
1005
1008
1007
1004
999
994
996
995
996
992
988
985
988
991
993
994
991
987
988
990
990
990
990
987
987
991
991
992
992
993
994
997
999
998
994
994
996
1006
1022
1039
1057
1077
1100
1124
1146
1171
1198
1236
1273
1313
1348
1374
1391
1402
1407
1411
1396
1354
1292
1229
1181
1152
1135
1120
1112
1107
1101
1098
1091
1081
1071
1060
1053
1051
1048
1040
1029
1019
1009
1006
1000
994
983
976
972
968
964
961
956
954
955
956
955
950
949
945
948
949
952
945
942
938
939
944
945
938
937
936
938
938
941
939
936
934
934
935
934
933
931
928
928
928
929
925
919
917
918
921
924
921
916
911
911
912
911
911
907
903
904
902
902
899
898
895
896
895
899
895
893
890
897
901
906
904
903
904
907
914
920
923
925
926
930
935
943
949
949
953
957
962
966
965
968
969
976
982
983
984
981
979
982
992
994
993
986
986
987
992
993
992
992
988
989
991
988
989
989
987
991
992
992
990
987
985
987
992
995
990
990
988
987
990
991
990
988
985
987
988
993
991
984
985
984
986
988
988
981
979
984
991
992
992
985
981
984
989
990
989
992
986
989
990
990
993
990
989
985
989
990
990
987
985
989
989
993
990
988
985
987
991
993
993
992
989
987
988
993
992
990
989
992
993
996
993
990
988
992
994
997
996
995
995
996
1002
1008
1008
1005
1003
1000
1005
1005
1002
1003
1001
1005
1008
1013
1012
1008
1010
1009
1010
1013
1011
1006
1004
1007
1010
1013
1011
1009
1006
1005
1006
1006
999
997
996
996
995
995
996
991
993
996
998
1003
1001
996
993
993
997
996
995
996
993
993
996
998
998
995
995
997
1000
1004
1002
999
994
995
999
1002
1006
1012
1023
1043
1064
1084
1100
1114
1134
1155
1184
1211
1244
1273
1302
1336
1368
1390
1398
1399
1397
1389
1374
1350
1310
1258
1210
1168
1140
1124
1111
1103
1098
1093
1095
1089
1079
1068
1057
1049
1047
1045
1042
1036
1030
1025
1020
1010
1005
998
989
983
979
977
966
963
958
956
957
960
958
954
949
950
950
952
952
951
948
946
946
948
948
943
943
942
941
943
940
937
935
933
938
942
942
937
931
931
933
935
932
928
925
922
925
924
926
920
918
920
918
918
913
911
906
907
910
910
906
900
896
895
899
901
900
894
891
892
895
896
895
897
899
903
906
908
909
909
917
921
931
936
941
943
945
949
957
966
969
967
971
974
980
983
986
986
986
989
989
994
994
996
993
997
998
1000
998
995
997
998
1003
1007
1009
1009
1013
1020
1034
1052
1068
1086
1103
1124
1150
1173
1197
1215
1232
1247
1264
1274
1283
1283
1273
1252
1210
1148
1072
1000
937
885
846
811
788
762
744
732
718
706
689
677
665
656
653
646
643
637
632
632
640
653
667
690
722
753
782
803
817
826
838
847
856
865
871
877
874
880
887
904
915
922
930
940
954
962
970
978
984
991
1003
1012
1015
1013
1014
1023
1031
1039
1041
1041
1043
1047
1051
1061
1065
1068
1072
1074
1081
1091
1089
1094
1093
1102
1110
1122
1124
1126
1127
1135
1144
1152
1157
1160
1164
1168
1173
1180
1186
1190
1197
1203
1209
1211
1215
1214
1213
1222
1228
1234
1236
1239
1238
1241
1244
1251
1254
1252
1251
1251
1252
1254
1249
1250
1247
1248
1247
1247
1243
1236
1229
1224
1225
1220
1217
1206
1199
1193
1190
1185
1177
1169
1162
1156
1151
1143
1136
1131
1123
1119
1112
1109
1101
1091
1081
1074
1071
1067
1062
1053
1045
1044
1039
1035
1032
1027
1024
1025
1027
1024
1020
1014
1010
1007
1012
1014
1014
1009
1002
1000
1004
1004
1002
999
995
998
999
1002
997
995
995
995
996
997
995
991
992
991
990
994
993
992
987
988
991
994
990
988
982
982
986
990
989
985
983
981
985
985
981
980
981
984
984
985
982
978
976
980
984
985
984
982
978
979
978
980
980
979
975
973
978
978
976
973
974
974
979
978
979
976
972
973
974
978
976
973
971
971
972
975
974
972
969
972
974
975
973
972
968
970
978
977
976
972
971
972
970
974
974
972
970
970
973
975
977
974
971
972
973
974
970
967
969
972
975
978
976
974
970
972
975
975
977
976
973
973
975
979
977
973
972
973
976
977
975
973
974
975
978
980
978
973
973
975
978
979
979
973
974
974
978
978
979
979
976
974
976
981
981
977
977
977
978
982
981
978
978
977
981
982
979
978
977
979
983
987
984
981
978
982
984
984
982
979
975
976
982
985
985
982
981
980
986
986
984
984
982
983
982
986
988
988
984
986
994
999
996
994
993
997
1000
1004
1002
998
999
1001
1005
1008
1006
1001
995
997
999
1003
1004
1001
1001
1000
997
1000
998
996
993
991
991
988
988
983
982
986
990
994
991
988
982
985
987
990
991
988
984
986
987
992
987
988
990
988
988
992
989
990
989
992
1000
1020
1036
1057
1075
1092
1118
1141
1166
1195
1232
1271
1307
1342
1370
1393
1409
1424
1430
1427
1408
1365
1300
1235
1185
1157
1137
1125
1114
1112
1108
1102
1092
1079
1068
1062
1060
1057
1052
1041
1030
1024
1018
1013
1004
996
991
981
980
974
969
962
957
952
955
958
955
951
947
943
948
950
949
942
940
938
941
943
942
941
939
939
939
939
935
934
929
934
936
935
931
931
928
928
929
931
925
923
919
920
920
924
919
913
911
911
910
912
910
907
904
902
900
902
897
895
895
894
892
894
891
883
889
890
894
899
900
897
898
904
910
915
919
921
924
930
940
947
953
952
957
961
969
974
978
979
981
983
990
994
996
996
994
995
997
996
999
998
1002
997
1001
1000
997
995
992
993
997
997
998
993
991
990
994
995
992
988
987
988
991
995
990
991
985
986
989
993
992
992
990
987
988
992
992
992
993
995
992
991
990
990
988
991
990
993
992
990
986
992
994
994
990
991
988
988
989
995
992
988
986
985
989
993
995
992
990
993
994
996
996
997
998
998
1000
1001
1002
1000
1000
1001
1003
1005
1005
1005
1008
1008
1010
1009
1006
1003
998
1001
1005
1010
1007
998
993
995
998
1001
1000
995
986
982
983
988
991
986
984
986
988
988
987
979
980
980
982
984
984
986
984
985
983
986
988
984
985
985
987
991
988
987
991
1014
1041
1066
1084
1099
1115
1137
1160
1193
1228
1266
1308
1347
1380
1400
1398
1376
1337
1280
1218
1163
1123
1101
1085
1079
1079
1087
1083
1074
1065
1058
1050
1048
1039
1028
1022
1016
1014
1010
1002
993
984
982
977
973
967
958
951
951
949
952
950
946
943
941
942
949
945
938
936
937
939
942
940
938
934
934
938
940
940
936
933
929
933
933
932
929
925
927
927
927
925
920
921
919
918
917
915
911
909
908
908
909
906
902
896
898
902
901
900
896
890
892
896
901
898
898
894
897
899
904
907
908
911
915
917
922
924
926
929
939
944
955
960
962
961
964
968
970
973
973
974
978
979
982
981
977
972
976
982
983
984
979
976
980
982
985
982
980
976
974
979
979
979
975
973
974
979
982
982
976
972
973
978
986
984
979
977
975
981
982
984
982
979
978
981
983
982
980
975
976
977
982
983
982
981
978
979
981
984
983
979
979
981
981
983
982
982
984
982
984
985
986
990
992
995
995
998
993
993
996
998
1000
998
995
997
997
1004
1005
1001
1000
997
999
1001
1003
998
994
989
987
989
992
988
983
980
980
981
984
985
983
981
980
980
983
982
983
980
979
979
982
982
979
977
981
983
986
986
983
986
989
1007
1032
1054
1075
1093
1110
1130
1153
1176
1212
1253
1299
1348
1392
1414
1418
1409
1380
1330
1259
1186
1127
1093
1076
1072
1073
1074
1073
1065
1063
1058
1051
1041
1033
1027
1021
1020
1013
1003
993
984
978
978
975
969
959
952
949
948
948
947
944
939
938
939
943
942
937
933
931
934
935
933
932
933
933
932
934
930
928
928
928
928
932
926
922
919
920
922
925
921
918
912
915
915
916
912
904
899
902
903
902
900
899
894
893
892
894
893
889
885
886
887
892
892
895
893
896
897
904
905
905
908
913
919
925
931
930
936
944
952
958
957
963
963
968
975
981
978
977
974
974
979
985
986
981
977
978
982
984
985
982
977
978
981
985
984
983
980
980
980
978
979
979
977
976
976
977
977
978
977
973
978
978
981
977
977
978
980
982
976
974
972
974
980
983
981
976
974
977
982
984
981
980
973
974
977
979
981
977
974
976
975
982
980
978
977
974
976
979
981
979
976
978
983
986
989
988
990
993
996
997
998
994
993
995
997
1002
999
997
991
995
998
999
996
994
989
988
989
992
989
986
980
975
979
982
982
978
972
972
977
981
982
976
970
969
975
978
978
977
973
974
977
981
975
976
979
980
982
981
979
977
986
1008
1032
1058
1078
1094
1112
1133
1155
1182
1211
1253
1294
1341
1382
1410
1416
1404
1370
1317
1249
1192
1150
1121
1105
1099
1098
1096
1087
1079
1069
1060
1053
1043
1036
1027
1018
1005
1000
994
984
974
963
962
961
959
953
946
933
937
940
939
936
932
930
927
931
934
931
926
923
923
925
927
928
924
921
923
921
922
922
919
915
915
915
917
914
911
907
902
906
908
909
903
897
897
900
900
898
892
888
883
883
886
884
879
874
873
872
876
876
876
872
871
875
875
875
873
875
880
883
886
890
891
896
901
907
910
913
913
915
921
927
935
941
940
944
949
955
960
961
962
962
966
968
970
970
967
962
964
969
976
975
972
969
970
972
975
975
974
972
967
972
972
972
971
968
968
968
974
973
968
968
970
970
971
970
965
964
966
972
973
970
968
961
962
967
972
969
965
963
960
964
968
969
967
967
966
965
966
967
966
967
967
965
969
966
966
965
966
970
969
969
969
964
967
970
971
971
970
966
968
968
975
976
979
976
976
979
980
980
977
981
981
984
985
987
987
987
989
991
991
990
987
987
988
991
992
989
984
980
981
986
986
981
974
971
967
970
973
974
975
974
977
976
976
973
970
968
970
974
976
974
974
971
971
971
975
977
974
975
977
977
981
992
1011
1036
1066
1087
1113
1136
1163
1202
1244
1280
1312
1336
1362
1389
1409
1414
1399
1357
1291
1212
1142
1099
1087
1082
1078
1070
1061
1054
1049
1043
1036
1027
1020
1016
1015
1006
995
987
973
970
966
957
952
944
939
938
938
935
931
933
930
936
939
935
932
927
927
929
933
933
928
923
922
922
928
927
924
922
922
924
923
920
917
914
917
914
915
913
907
902
906
907
905
904
898
892
893
897
899
898
891
886
887
886
887
889
885
880
878
881
885
883
882
880
881
883
890
892
892
893
899
903
909
913
914
920
928
936
942
944
943
948
951
961
965
966
965
964
965
969
975
975
973
970
970
974
977
977
974
973
973
970
975
976
974
972
975
975
979
976
972
970
968
976
977
975
970
968
971
971
975
975
972
970
969
970
973
972
970
968
967
970
971
968
966
968
971
969
970
969
968
969
971
973
975
975
970
969
969
971
975
977
976
971
972
974
978
978
978
974
976
978
978
977
973
973
975
978
979
979
975
976
979
986
989
987
986
983
984
986
989
991
986
985
984
988
990
990
990
987
987
989
989
986
987
984
984
985
986
986
982
975
974
976
976
975
971
965
966
970
974
976
971
966
965
967
969
969
970
970
967
970
973
971
969
969
969
974
975
976
971
971
978
995
1017
1033
1048
1058
1071
1091
1119
1148
1179
1212
1258
1306
1353
1391
1410
1413
1400
1365
1303
1233
1169
1129
1107
1091
1083
1072
1065
1063
1057
1054
1045
1036
1025
1016
1009
1006
1000
992
981
971
966
963
964
957
949
943
936
938
938
934
931
927
927
928
933
932
926
922
924
926
926
927
924
921
921
921
922
917
916
911
915
915
917
914
912
906
908
912
913
911
906
901
900
899
901
899
897
893
890
892
896
891
888
884
882
884
887
884
883
882
883
882
888
883
882
881
886
892
897
899
898
899
903
911
917
920
921
924
932
939
947
949
952
951
953
960
967
967
966
964
966
967
970
968
968
968
967
970
972
971
971
968
969
970
971
969
968
967
969
971
973
968
964
963
962
965
969
970
965
962
959
963
966
965
961
959
959
962
963
964
963
961
964
965
966
963
957
959
961
963
966
965
962
961
962
965
971
971
969
963
961
962
967
968
968
964
964
967
969
969
967
962
964
965
968
969
968
966
968
971
974
972
968
971
973
977
980
984
982
980
981
982
983
981
981
980
981
984
985
985
983
979
978
981
982
982
980
977
976
977
976
973
970
963
965
968
971
971
965
959
959
960
965
966
967
964
962
960
962
963
960
958
960
962
964
962
961
959
964
965
969
970
968
964
965
970
979
994
1014
1034
1056
1078
1098
1121
1135
1151
1170
1196
1221
1250
1292
1330
1365
1392
1401
1394
1371
1329
1268
1213
1164
1129
1104
1087
1080
1074
1075
1069
1061
1055
1049
1041
1034
1025
1015
1007
1004
1000
997
985
973
962
957
954
952
947
940
931
931
931
932
930
923
919
919
922
925
923
920
920
916
920
921
919
912
914
914
914
918
916
911
910
905
909
913
913
910
902
901
901
901
903
901
900
898
895
894
891
887
882
886
887
888
885
881
878
874
876
880
878
872
870
867
864
865
866
868
867
868
866
866
866
865
868
867
872
877
880
882
881
885
889
897
901
907
911
915
915
926
930
929
931
937
942
948
946
946
945
950
955
960
962
963
957
956
961
965
966
967
963
961
965
967
969
964
965
964
966
968
969
964
959
960
963
966
967
966
962
960
964
964
963
963
961
961
967
969
964
959
959
959
963
964
964
962
960
954
957
960
961
960
955
956
956
958
958
955
954
959
962
963
960
958
955
957
960
966
966
963
958
952
958
961
964
963
962
962
965
969
968
962
958
959
963
968
968
966
961
962
963
965
967
964
965
967
973
977
979
979
976
978
982
981
980
973
973
974
977
980
981
983
983
980
981
984
982
981
977
980
982
985
984
982
981
975
980
979
978
974
969
972
969
970
970
969
966
960
963
966
966
969
967
969
971
970
968
966
963
964
968
970
969
969
966
967
968
969
971
971
967
970
975
975
975
972
967
965
965
968
972
981
994
1017
1037
1057
1074
1088
1104
1123
1149
1177
1204
1235
1266
1299
1334
1368
1393
1409
1420
1422
1425
1422
1411
1391
1352
1298
1235
1174
1133
1103
1082
1070
1066
1063
1055
1051
1043
1038
1035
1032
1024
1016
1008
1002
1004
1004
1003
999
995
988
987
983
976
966
958
953
954
950
946
941
933
929
928
933
932
929
929
928
932
936
934
928
925
924
925
925
925
922
918
922
923
927
925
921
916
917
920
923
923
918
915
915
917
919
917
915
912
910
913
917
916
913
909
906
908
910
910
909
903
903
901
904
900
898
895
892
897
897
895
895
893
892
893
893
889
882
881
884
884
885
884
881
879
878
879
883
882
881
878
878
882
884
885
883
882
886
887
895
895
895
897
902
907
913
914
918
919
921
928
932
933
938
939
946
953
957
958
957
958
956
959
963
961
965
963
965
967
973
971
968
968
967
972
973
973
967
965
967
967
972
973
970
967
964
967
970
971
967
966
965
967
967
966
965
966
968
969
970
974
967
964
960
963
970
968
968
962
960
968
971
971
968
963
963
966
970
969
968
965
966
969
971
969
965
964
967
967
972
971
966
963
961
969
975
973
972
967
967
967
970
967
966
962
967
966
969
970
969
967
969
976
977
977
979
977
977
984
982
984
983
980
978
982
986
991
987
985
981
981
985
986
983
982
982
980
982
978
975
975
975
977
979
972
967
962
959
963
970
969
967
961
961
967
967
965
964
962
962
964
965
965
963
963
962
968
968
967
966
964
964
966
969
966
963
961
970
985
1010
1033
1049
1064
1084
1107
1136
1171
1206
1244
1284
1333
1375
1406
1418
1424
1418
1402
1373
1311
1230
1155
1109
1089
1077
1072
1062
1054
1048
1043
1040
1031
1021
1011
1007
1002
1002
996
988
980
975
971
966
959
951
944
941
941
940
937
933
925
925
928
932
931
929
928
926
927
927
928
927
923
922
924
925
921
921
918
918
921
920
914
907
906
907
910
915
915
909
903
906
905
907
907
903
903
899
897
897
892
890
891
895
897
896
889
880
881
880
879
881
879
876
876
875
875
878
882
880
878
879
883
894
898
896
899
900
905
914
918
920
924
925
933
943
946
948
947
951
953
957
959
957
957
959
962
965
961
959
955
958
964
966
965
958
959
958
960
965
963
960
957
956
961
963
961
957
955
951
955
958
960
957
955
953
954
957
954
952
950
947
950
954
958
954
954
953
954
957
954
954
956
952
955
956
955
957
955
958
958
961
959
956
955
954
958
962
960
957
955
957
961
963
964
961
957
957
957
962
963
961
960
960
965
970
974
972
969
967
969
974
974
975
971
971
974
973
978
973
970
971
974
977
976
973
970
968
967
971
967
959
956
953
955
957
959
957
959
956
955
955
955
956
956
959
960
961
959
956
956
956
961
964
963
959
957
961
976
1001
1021
1034
1045
1058
1080
1110
1141
1174
1215
1257
1306
1351
1380
1392
1380
1349
1291
1220
1162
1120
1096
1076
1063
1056
1052
1046
1037
1025
1016
1011
1004
995
990
982
974
971
962
956
950
940
938
936
931
922
921
920
922
925
919
915
915
913
917
918
914
912
910
907
911
914
911
907
906
904
904
908
906
905
900
899
898
901
898
896
895
893
893
895
894
889
888
887
887
885
882
878
873
874
876
879
876
870
864
867
869
871
873
868
866
866
873
878
880
879
877
881
887
894
900
899
903
905
915
919
927
932
935
937
939
944
948
948
948
950
949
952
952
952
953
954
957
959
957
955
952
952
955
959
955
951
950
953
955
960
958
954
949
948
948
956
954
950
948
944
951
955
952
950
946
945
952
955
950
948
947
945
948
953
951
950
949
948
950
953
952
955
954
953
953
954
953
954
953
949
947
952
955
953
953
952
953
955
953
950
951
949
953
959
959
957
958
961
965
968
969
966
966
967
970
975
972
971
970
973
976
978
975
971
968
968
971
973
973
969
963
962
963
963
966
964
960
954
954
953
955
960
957
954
954
952
954
954
954
953
954
957
954
952
951
951
954
960
959
956
955
956
962
976
997
1018
1038
1056
1078
1094
1116
1134
1163
1199
1247
1297
1340
1369
1386
1386
1372
1335
1271
1192
1129
1092
1073
1060
1054
1052
1046
1049
1043
1042
1029
1020
1011
1005
1005
1001
992
981
972
968
962
960
955
949
938
933
931
929
928
927
924
922
924
926
923
922
919
918
918
920
920
917
915
914
918
918
918
913
908
911
911
914
912
906
904
902
905
906
908
903
899
895
896
898
898
896
891
888
888
888
885
885
880
877
880
878
880
876
873
871
875
875
875
874
874
872
877
882
885
884
885
887
891
901
904
909
908
912
921
932
933
939
939
941
947
954
960
960
958
957
960
962
962
962
960
962
961
964
965
965
962
961
962
963
963
959
957
959
962
963
961
959
956
956
957
963
961
953
954
953
956
960
961
958
953
952
954
959
960
959
955
954
956
958
961
959
958
954
956
958
960
960
961
958
959
963
962
958
958
956
959
962
962
958
959
961
963
965
962
958
961
959
965
966
965
964
965
972
978
980
978
977
973
976
976
980
981
979
977
979
980
984
978
973
974
974
975
980
978
972
968
965
967
968
967
962
957
955
956
964
965
963
959
956
954
956
960
961
959
957
959
962
963
961
958
958
958
962
960
957
957
962
975
997
1021
1043
1062
1084
1107
1138
1180
1222
1268
1315
1360
1392
1405
1402
1388
1359
1303
1230
1164
1116
1089
1077
1076
1075
1071
1061
1047
1039
1033
1029
1024
1017
1008
999
992
985
976
966
960
954
947
943
940
934
927
924
925
930
927
925
920
919
918
920
921
918
915
912
911
912
913
910
908
907
906
909
907
904
903
902
905
907
905
899
898
899
897
898
898
890
889
888
887
891
888
883
879
877
876
878
877
874
872
870
871
870
866
865
864
864
866
866
864
862
860
862
866
874
879
877
874
878
880
890
896
897
902
904
909
918
922
929
932
933
935
940
939
942
942
947
950
956
954
954
955
955
956
960
961
957
957
955
958
963
964
962
960
956
958
961
958
958
955
955
955
957
955
953
953
955
959
961
960
957
953
949
955
958
954
950
945
945
950
953
951
949
946
945
949
951
955
950
949
948
950
951
952
952
950
950
949
952
953
951
950
952
957
957
954
950
949
949
951
952
955
952
949
950
952
953
958
956
953
952
956
962
963
963
963
961
961
968
966
968
965
965
966
969
969
971
971
970
973
972
973
970
973
975
974
972
966
964
958
959
964
968
963
957
952
950
955
961
959
958
955
953
952
955
957
956
954
954
955
957
959
957
955
953
954
954
955
958
956
959
961
963
962
966
976
998
1025
1049
1073
1090
1110
1136
1174
1212
1248
1282
1315
1347
1372
1389
1396
1399
1392
1376
1336
1278
1206
1139
1092
1073
1066
1061
1058
1050
1037
1031
1024
1022
1015
1008
998
991
989
987
982
977
966
959
950
946
939
935
928
921
919
921
921
916
911
908
911
913
916
915
913
910
910
909
909
910
906
907
909
907
906
902
897
901
904
908
904
901
895
895
897
900
897
891
890
891
894
893
891
888
885
878
879
884
884
881
877
876
875
877
875
872
869
867
867
871
869
866
864
866
870
875
877
872
869
873
877
883
889
889
889
892
896
903
909
913
917
919
924
929
932
930
931
937
942
949
953
948
950
951
955
957
957
959
954
953
956
958
957
958
955
957
956
959
960
955
950
951
952
955
956
951
950
949
954
955
956
955
950
949
951
953
953
951
950
951
953
955
955
950
947
946
950
953
951
952
951
950
951
954
955
954
951
949
954
955
954
950
949
952
957
956
954
952
950
951
955
957
958
955
953
953
953
956
957
955
952
956
954
956
954
955
955
954
958
960
955
955
954
955
960
964
966
966
962
963
965
967
970
968
967
964
967
969
970
971
971
971
973
972
971
969
966
967
971
972
973
965
962
962
965
966
963
957
952
949
954
955
958
959
954
951
953
956
953
954
954
954
953
954
957
954
954
951
953
953
956
954
953
955
958
960
961
960
968
984
1013
1041
1059
1077
1093
1117
1148
1183
1217
1244
1269
1306
1340
1370
1379
1378
1355
1309
1243
1167
1104
1066
1047
1041
1042
1043
1038
1031
1022
1013
1008
1006
999
992
980
978
974
972
964
955
944
935
934
931
931
927
922
917
916
918
913
913
912
911
912
912
911
911
909
908
910
912
912
906
901
905
907
909
909
906
898
899
900
904
903
901
894
890
891
892
891
891
888
886
886
888
885
880
877
875
878
880
877
872
866
868
870
873
870
867
864
864
866
869
870
869
870
869
872
878
881
883
880
882
884
891
898
902
903
905
911
921
922
926
925
928
933
938
944
945
942
943
944
951
950
950
953
950
954
955
955
951
948
948
951
954
953
949
946
948
951
955
954
950
946
947
947
950
954
950
948
948
950
948
948
946
947
945
948
951
949
947
943
944
947
948
948
948
943
942
946
949
949
947
948
946
946
948
950
947
948
949
951
951
951
949
946
946
950
954
954
953
949
947
949
950
951
948
946
946
948
947
950
949
949
950
952
953
953
947
946
944
945
950
953
952
947
951
954
960
962
961
959
961
962
964
965
963
963
961
966
968
968
968
965
966
968
968
965
963
963
960
964
971
971
965
957
954
953
955
952
949
948
942
941
946
947
950
950
952
954
952
948
946
944
944
948
951
950
950
945
944
946
949
952
949
948
946
946
948
951
953
959
977
1003
1031
1047
1067
1085
1108
1137
1176
1216
1254
1292
1328
1363
1385
1396
1395
1384
1360
1309
1241
1172
1121
1087
1073
1065
1063
1058
1049
1034
1023
1014
1011
1008
1003
996
989
983
975
967
955
948
939
932
925
922
915
909
911
912
911
911
906
903
904
903
908
907
905
900
901
902
904
902
900
897
896
895
896
897
896
895
893
891
893
890
888
883
883
882
884
883
880
878
877
878
878
876
871
865
864
862
861
865
861
858
855
856
858
857
853
848
849
852
856
859
859
857
859
862
867
871
873
878
880
887
893
897
900
903
906
913
920
920
922
923
925
931
939
943
942
940
942
942
946
949
950
947
944
946
949
950
948
944
946
948
946
946
945
944
946
949
950
945
946
939
940
942
945
944
945
940
940
940
944
947
942
938
935
939
943
944
942
938
938
940
942
941
942
938
936
939
943
941
939
935
936
940
944
944
943
939
937
939
939
940
941
942
941
940
944
943
944
943
945
948
948
947
939
935
937
943
945
947
945
938
941
946
950
949
946
943
942
946
955
958
957
955
954
956
957
961
958
954
953
955
961
963
962
960
959
960
962
962
964
959
953
959
964
965
965
953
954
953
957
953
949
947
947
946
946
948
943
944
945
945
947
944
943
942
940
945
948
949
949
945
944
946
948
947
947
947
946
947
945
945
950
956
973
992
1014
1032
1049
1065
1089
1118
1150
1183
1216
1247
1284
1325
1360
1383
1392
1388
1373
1344
1304
1252
1187
1134
1089
1062
1046
1039
1036
1030
1026
1020
1014
1006
993
988
985
982
981
981
974
967
959
949
946
943
936
930
925
922
920
917
916
914
913
913
915
915
910
906
905
907
911
914
914
910
907
909
912
912
910
908
905
905
908
909
904
903
900
905
905
902
901
895
897
898
899
901
900
893
890
893
891
893
892
887
886
884
885
885
881
879
878
880
880
877
873
867
867
871
874
874
868
868
870
875
881
884
883
884
887
891
895
901
903
907
910
918
923
928
927
929
931
939
943
948
945
948
951
952
956
959
958
955
953
955
955
958
961
957
958
959
958
960
957
955
957
957
962
959
955
952
952
955
959
960
956
952
949
952
957
958
955
951
951
951
956
954
954
952
952
954
956
954
954
951
956
957
961
961
957
952
953
953
955
961
956
952
952
955
956
957
957
954
957
957
958
960
957
956
954
956
960
959
960
957
956
960
964
962
962
956
956
958
961
963
962
959
956
955
960
962
963
962
963
966
969
971
972
972
972
973
975
974
971
967
969
974
979
982
979
972
970
970
974
975
975
972
973
972
973
973
970
965
967
969
968
967
962
956
956
957
962
963
959
958
955
958
960
959
959
957
956
957
961
959
958
954
953
957
960
960
962
960
959
962
964
966
966
978
996
1019
1037
1046
1059
1066
1079
1096
1118
1147
1184
1218
1255
1293
1333
1362
1376
1383
1371
1343
1293
1229
1170
1124
1097
1080
1067
1064
1060
1052
1043
1037
1033
1028
1016
1008
1001
997
995
989
984
973
968
962
956
952
946
938
935
932
933
932
929
925
925
922
925
926
925
918
921
921
925
924
922
919
914
916
915
917
916
913
911
913
916
913
911
907
909
911
909
910
905
900
897
901
904
903
902
897
892
893
892
894
892
886
884
884
887
889
885
882
880
881
885
886
888
884
881
886
890
892
895
895
897
904
911
917
919
923
927
934
941
947
948
948
951
957
962
961
963
959
960
964
967
970
969
965
962
965
965
966
963
961
960
963
964
966
966
963
960
962
961
959
959
960
956
959
957
958
957
958
957
959
961
959
955
955
955
958
956
957
954
954
953
955
958
956
957
953
952
956
960
959
957
956
955
956
962
961
958
955
953
954
959
960
958
957
957
953
954
960
959
954
954
954
957
960
958
956
957
958
961
960
959
957
960
963
967
971
969
969
965
973
972
976
971
969
968
973
978
981
977
976
977
979
981
978
977
975
974
972
973
973
970
967
964
963
962
962
959
956
956
960
962
962
960
957
958
958
962
961
960
956
957
958
964
963
959
956
957
959
965
967
968
963
965
974
996
1020
1044
1060
1076
1099
1118
1143
1168
1203
1240
1279
1318
1347
1368
1370
1359
1330
1276
1215
1157
1116
1090
1080
1069
1068
1059
1050
1044
1042
1034
1027
1015
1005
997
993
993
991
982
971
960
956
952
947
938
932
927
927
926
925
924
920
923
924
926
924
918
917
916
920
920
922
918
912
914
916
918
914
912
908
909
908
909
911
909
904
899
903
906
905
904
897
894
890
892
891
891
888
887
886
886
883
883
881
877
880
881
881
878
875
875
878
880
882
878
880
880
886
895
900
902
903
905
915
924
930
932
932
935
943
952
958
958
955
954
959
967
969
967
962
957
957
967
968
969
966
963
964
964
966
964
965
963
964
966
963
964
960
959
959
965
965
962
959
958
959
960
962
960
959
960
961
961
962
963
960
963
963
967
965
962
963
963
967
969
970
967
964
965
968
971
971
970
966
967
969
972
972
967
966
970
970
971
969
965
965
966
970
971
971
971
970
972
979
984
984
982
981
979
981
982
986
986
984
983
985
988
988
986
983
982
986
990
990
986
982
978
977
979
980
978
971
968
967
972
974
975
972
970
970
970
973
974
969
972
972
974
974
976
974
974
973
979
980
977
977
979
994
1019
1047
1072
1091
1110
1136
1162
1188
1215
1250
1289
1328
1370
1395
1399
1386
1348
1288
1214
1148
1101
1074
1061
1059
1059
1061
1055
1049
1040
1035
1026
1022
1017
1010
1005
999
988
986
981
971
964
961
957
952
947
944
940
942
943
941
938
934
934
937
940
937
936
931
930
931
935
938
932
928
927
930
932
931
930
925
923
921
924
926
922
920
915
917
920
918
918
914
912
914
913
911
909
903
904
900
905
902
899
896
894
898
901
900
895
894
897
899
902
904
903
905
907
912
920
924
926
928
929
937
946
954
955
957
959
963
969
975
975
971
969
972
979
979
978
975
971
973
977
976
976
973
972
972
973
972
972
971
968
969
971
974
973
969
968
969
970
971
970
970
971
967
973
972
966
967
969
969
971
972
968
967
969
973
975
975
970
969
967
972
974
976
974
971
971
975
979
979
974
971
971
973
974
978
975
974
971
970
975
979
976
975
974
974
975
977
977
975
975
976
980
982
984
983
984
987
991
994
994
992
990
989
993
992
994
992
993
996
997
995
992
990
992
994
997
994
994
985
984
985
986
985
980
977
974
978
980
983
981
978
977
979
982
983
984
982
981
981
981
983
983
980
980
983
983
986
986
985
984
987
986
990
999
1015
1031
1059
1078
1099
1115
1130
1155
1191
1236
1280
1318
1353
1383
1405
1423
1427
1420
1392
1338
1268
1207
1162
1135
1117
1105
1097
1094
1093
1085
1074
1063
1056
1047
1043
1034
1023
1015
1012
1007
1003
991
981
970
967
964
964
958
952
950
947
950
950
948
943
941
941
942
941
939
939
936
940
941
940
939
934
930
932
936
935
933
926
926
923
927
926
926
922
919
914
916
918
918
912
913
913
914
915
910
904
900
903
901
901
901
896
894
894
896
897
894
892
887
888
894
898
898
896
896
899
898
908
910
912
916
921
925
931
932
933
936
940
952
957
960
961
967
974
980
983
983
983
983
987
993
996
995
988
990
991
992
995
995
991
988
990
989
994
995
996
992
992
995
989
993
988
990
991
989
990
992
988
988
989
991
991
989
983
982
987
989
989
986
984
981
985
990
990
989
984
983
983
988
991
989
983
985
986
988
992
988
988
988
989
989
991
988
989
989
992
992
990
988
988
990
990
995
996
996
995
991
990
991
990
990
988
986
992
999
1002
1002
999
999
1004
1009
1011
1008
1002
1001
1003
1004
1007
1006
1008
1008
1007
1010
1008
1008
1009
1007
1008
1009
1004
999
999
993
994
993
993
994
993
992
994
997
997
997
992
990
989
994
993
994
991
990
993
995
1000
997
993
991
993
995
993
996
998
995
997
1002
1013
1033
1052
1068
1082
1100
1120
1142
1165
1196
1236
1278
1319
1355
1385
1408
1421
1427
1419
1389
1346
1285
1226
1176
1140
1112
1092
1084
1082
1088
1082
1074
1062
1053
1048
1045
1042
1035
1028
1021
1018
1013
1008
995
986
977
972
969
968
963
958
956
954
954
956
955
952
954
953
951
950
948
943
946
947
951
952
950
946
946
943
945
947
945
942
940
942
939
943
938
938
938
937
938
937
932
929
929
932
931
932
930
924
919
917
919
922
921
915
906
909
908
910
911
907
905
904
904
907
905
903
903
906
910
915
915
912
914
918
927
933
934
933
934
941
949
956
959
960
961
963
967
975
973
973
975
979
981
983
985
986
987
988
995
996
994
989
987
987
993
995
994
989
986
988
988
990
990
986
987
989
991
990
987
986
986
989
992
992
987
985
982
985
987
990
991
987
984
987
989
989
989
986
984
987
987
989
988
984
983
984
990
992
990
986
985
987
992
993
993
988
983
985
989
991
991
988
986
987
991
993
992
989
990
991
993
993
989
987
987
987
990
991
991
985
986
987
990
994
990
988
985
985
988
993
995
996
995
998
999
1002
1001
999
998
999
1003
1006
1005
1004
1003
1003
1003
1004
999
997
998
997
1002
998
996
989
986
987
991
989
988
981
980
979
977
984
982
981
982
984
985
984
982
980
979
978
984
984
983
979
979
981
983
988
985
983
984
984
983
985
984
990
1001
1019
1045
1067
1081
1093
1106
1129
1152
1181
1210
1242
1269
1302
1340
1374
1393
1400
1396
1379
1341
1284
1215
1153
1114
1093
1086
1082
1077
1071
1066
1063
1061
1054
1048
1035
1030
1025
1023
1017
1010
1000
991
986
986
981
973
963
958
953
951
951
952
945
942
940
942
945
939
938
935
939
943
942
936
933
934
936
937
938
938
930
926
927
930
932
932
930
924
924
927
923
923
921
919
921
922
921
922
915
914
913
913
915
911
907
904
903
904
906
902
898
896
895
894
896
895
890
887
891
894
895
893
889
890
891
901
904
900
900
898
903
908
915
916
916
917
926
931
937
939
943
947
953
959
966
967
964
968
971
977
982
982
980
979
980
979
984
984
983
979
976
982
985
982
979
978
979
982
986
983
980
978
979
980
983
982
979
977
976
975
973
975
975
975
976
977
974
974
973
971
974
977
979
977
973
970
970
972
976
975
972
970
973
974
976
974
974
970
973
977
977
974
972
972
974
976
978
976
976
971
972
973
974
975
975
974
974
977
978
974
971
972
974
980
983
978
970
973
974
978
979
977
974
973
973
977
982
980
977
975
976
974
976
978
979
979
982
988
991
987
986
987
987
990
994
994
990
988
988
989
995
998
996
993
992
994
994
993
991
992
993
996
994
989
983
979
982
984
987
983
978
973
970
974
976
979
977
978
978
978
978
973
972
973
976
979
978
976
974
975
977
979
979
978
976
975
978
985
989
989
990
1001
1021
1048
1072
1087
1105
1120
1142
1172
1209
1246
1282
1313
1347
1375
1388
1381
1353
1309
1251
1196
1151
1122
1100
1086
1083
1082
1077
1071
1061
1050
1044
1042
1037
1028
1021
1013
1008
1003
998
992
981
973
964
959
955
951
941
941
941
941
943
939
936
936
935
936
937
935
930
929
927
927
932
930
925
925
924
927
926
924
922
920
919
920
922
922
918
915
914
914
913
911
904
903
905
906
905
902
895
893
892
896
900
896
886
886
884
886
883
883
882
878
877
882
880
878
878
878
882
887
893
892
891
892
900
909
914
914
914
914
922
928
937
942
941
941
947
953
960
962
963
963
967
971
972
973
970
970
974
975
978
974
974
973
974
977
980
981
977
975
974
973
978
974
975
975
977
977
977
975
972
968
968
973
976
972
969
969
969
972
976
973
968
967
967
973
975
975
974
972
973
973
972
972
968
969
972
975
978
974
970
969
973
976
977
978
975
971
969
971
979
978
976
972
975
977
980
977
974
973
976
979
981
979
975
975
976
981
983
982
978
974
974
976
978
978
980
978
980
983
985
986
986
987
990
993
993
988
988
984
988
992
997
996
993
990
995
998
1001
1001
993
991
989
992
996
995
993
989
990
989
988
986
981
980
980
981
983
979
977
974
978
981
985
984
981
976
975
977
980
980
979
977
977
977
980
979
978
979
982
984
985
984
980
979
980
991
1009
1030
1051
1068
1089
1110
1143
1172
1204
1238
1278
1311
1351
1381
1395
1398
1390
1360
1306
1231
1163
1117
1092
1080
1078
1076
1073
1068
1062
1056
1050
1038
1027
1022
1016
1016
1012
998
988
980
976
972
969
965
958
949
944
943
942
943
940
935
934
936
935
933
931
933
932
933
932
931
930
926
928
928
932
928
923
920
921
924
925
919
917
913
910
913
917
913
910
904
902
903
907
903
900
895
896
895
898
895
891
888
888
892
890
888
886
883
883
887
890
889
887
888
892
898
902
903
904
906
911
918
925
929
930
934
940
948
955
955
956
957
962
966
971
971
973
974
975
980
980
980
977
975
974
975
976
975
975
972
974
975
977
975
972
968
971
972
973
975
968
966
970
973
975
974
968
964
966
970
972
972
969
966
966
969
971
970
969
966
966
966
971
973
970
967
970
970
972
973
970
969
972
975
972
974
971
972
971
975
976
973
971
970
968
975
977
976
970
967
967
974
977
974
972
967
969
973
976
976
975
975
974
977
982
980
980
982
984
986
989
984
985
984
989
993
995
991
987
985
986
987
989
988
983
979
982
981
982
979
977
972
972
972
977
973
970
969
970
971
973
972
968
966
966
967
969
969
969
965
966
968
974
972
969
963
966
972
976
974
971
969
975
992
1018
1040
1060
1072
1086
1102
1120
1135
1155
1182
1223
1268
1313
1354
1385
1399
1394
1368
1320
1245
1178
1134
1109
1094
1087
1084
1078
1072
1065
1058
1050
1038
1026
1020
1016
1011
1003
995
983
971
962
958
958
956
947
940
935
928
932
930
928
925
923
924
925
923
922
921
920
919
922
919
917
914
915
917
916
913
908
909
905
906
909
903
900
897
898
900
903
902
893
888
886
888
889
888
882
877
877
876
875
875
872
870
871
873
870
872
865
866
868
870
874
871
872
873
880
884
884
887
888
896
903
911
919
920
918
919
926
934
944
947
947
950
953
959
965
966
968
966
965
968
970
968
966
965
965
970
971
967
962
965
970
974
974
973
969
968
966
968
972
971
968
965
964
966
970
971
968
964
962
965
967
970
966
963
961
962
963
961
960
958
958
962
964
960
963
962
964
965
965
961
959
958
959
962
962
963
962
960
957
961
965
967
964
964
961
964
967
967
967
967
962
962
962
965
963
960
962
963
967
965
966
965
966
971
976
974
971
971
974
979
983
982
976
975
976
979
987
986
986
982
980
982
983
982
981
979
984
982
982
977
972
968
968
969
973
966
967
964
966
964
965
963
964
964
965
965
965
966
963
960
960
962
967
966
965
959
962
963
970
971
971
971
970
968
971
977
994
1018
1043
1066
1088
1111
1134
1165
1202
1244
1286
1317
1348
1373
1394
1409
1411
1395
1359
1301
1231
1166
1120
1093
1077
1071
1067
1064
1056
1047
1040
1035
1032
1024
1020
1013
1005
997
990
982
973
968
959
952
944
942
940
936
928
927
924
925
927
928
925
922
920
918
922
922
919
916
915
917
920
919
919
917
914
914
915
912
909
909
909
906
904
903
901
897
898
900
904
898
894
891
890
890
892
889
879
879
878
876
880
879
875
870
869
870
872
872
874
871
872
875
881
880
880
884
888
891
902
905
909
912
917
923
931
933
936
943
947
952
954
958
958
957
962
964
966
962
959
956
960
964
966
968
964
960
962
966
967
965
962
959
962
964
966
969
963
957
959
964
967
964
960
957
958
959
964
963
960
959
958
961
964
962
960
960
960
961
965
963
960
962
963
965
967
965
963
963
962
966
967
966
965
961
965
967
966
964
962
962
965
967
968
967
964
962
960
967
968
967
966
966
967
969
977
980
976
977
979
979
983
982
978
975
976
981
987
987
986
982
979
981
983
983
979
977
979
975
974
974
973
970
970
969
967
965
960
960
963
966
966
965
963
960
959
960
965
964
962
959
958
961
965
965
961
960
961
965
968
969
964
963
973
995
1018
1040
1060
1075
1095
1119
1150
1181
1214
1243
1273
1309
1347
1373
1391
1390
1374
1329
1263
1188
1127
1091
1074
1068
1065
1064
1057
1049
1044
1039
1032
1025
1015
1006
998
994
989
982
973
963
957
951
948
939
935
930
931
930
933
927
923
921
920
923
927
925
921
917
918
915
922
919
916
913
911
915
914
913
913
907
908
909
907
907
902
897
898
900
905
900
896
892
891
894
897
893
887
884
884
886
889
886
884
877
875
874
878
877
875
873
872
874
874
875
873
869
872
877
883
881
883
883
887
893
902
902
902
903
911
918
925
931
934
934
941
943
952
956
954
955
955
958
955
962
959
958
962
962
962
963
959
959
959
959
961
959
958
956
959
962
963
961
955
956
955
956
960
960
958
954
954
955
956
955
953
949
950
952
958
954
954
955
955
952
956
958
957
954
955
954
957
957
956
957
956
958
958
959
957
956
958
959
961
959
956
959
959
961
963
961
958
955
958
960
960
958
954
957
956
960
960
959
957
957
960
965
972
974
971
971
972
975
977
976
975
972
973
980
980
976
971
965
966
971
974
975
969
962
959
959
962
964
959
951
949
952
953
954
955
953
953
955
950
952
954
955
953
953
955
954
952
954
955
958
962
961
958
954
952
958
974
992
1019
1040
1063
1080
1103
1122
1145
1174
1211
1257
1301
1338
1363
1376
1373
1354
1308
1242
1177
1127
1099
1083
1076
1071
1065
1057
1050
1047
1039
1029
1020
1012
1004
999
994
983
977
964
964
959
958
948
935
931
926
927
926
923
919
919
919
919
919
919
915
915
914
913
915
915
913
911
909
911
912
910
910
908
906
908
905
902
899
893
896
898
899
898
890
888
887
890
890
890
887
881
876
876
879
878
876
869
867
864
866
866
867
864
862
861
863
863
861
862
862
866
871
872
871
870
874
881
890
890
894
899
903
910
917
924
927
931
933
936
943
945
945
946
949
950
954
957
954
952
954
958
958
960
959
957
955
958
959
958
956
954
952
957
960
961
955
951
952
955
958
958
954
950
945
950
951
952
951
952
951
949
954
955
954
953
951
950
952
949
950
950
951
952
955
952
952
947
950
953
957
956
951
951
951
954
960
957
955
951
950
952
956
958
957
952
949
953
958
956
955
955
953
954
958
960
960
960
959
961
963
962
959
957
961
968
971
971
970
968
971
975
974
973
970
968
970
976
976
977
971
968
969
974
980
978
972
965
963
964
966
967
968
963
962
963
961
960
956
961
960
961
964
961
959
955
957
960
963
961
960
957
957
960
963
965
966
963
963
965
968
966
965
968
977
1000
1025
1043
1055
1067
1081
1103
1131
1156
1186
1224
1264
1306
1350
1379
1394
1396
1394
1380
1359
1313
1242
1172
1118
1088
1069
1059
1052
1050
1047
1041
1038
1028
1018
1010
1006
1006
1006
1001
991
980
971
967
964
957
948
937
932
934
933
929
927
924
923
923
924
924
919
919
920
918
923
922
916
914
913
916
919
917
915
913
913
913
914
912
912
909
904
906
912
907
904
903
900
904
907
904
903
896
897
897
899
900
890
892
889
888
889
887
885
881
879
880
881
877
876
873
874
876
879
877
873
869
874
877
883
885
882
881
883
891
899
903
905
902
905
914
917
921
923
926
931
940
944
944
945
944
951
956
960
960
957
955
953
960
964
963
960
960
959
960
965
964
959
960
961
962
961
963
958
960
959
965
964
961
958
956
955
958
962
958
956
953
955
955
957
959
956
954
954
954
958
957
956
954
955
955
956
959
955
955
955
957
961
959
958
956
957
960
962
961
961
956
955
957
962
960
958
956
955
958
961
963
960
960
957
954
958
959
961
955
957
957
963
961
958
959
960
959
963
960
961
961
963
969
974
975
973
970
972
977
979
978
973
972
976
979
982
981
975
969
970
970
976
977
974
969
965
965
966
965
964
959
957
957
959
959
955
955
956
961
966
962
959
956
956
959
963
962
960
956
958
962
965
965
963
959
961
963
968
966
967
972
985
1006
1033
1051
1065
1079
1098
1123
1153
1189
1225
1255
1287
1321
1347
1365
1376
1382
1377
1351
1298
1234
1172
1128
1106
1089
1083
1079
1072
1066
1058
1055
1051
1041
1032
1022
1017
1012
1008
1002
988
977
972
967
964
956
950
942
939
937
938
933
933
927
927
927
927
927
923
924
923
923
926
923
920
917
915
920
921
921
916
914
909
910
911
916
912
910
911
909
912
909
908
904
903
904
906
902
897
897
896
897
897
898
888
888
888
887
887
884
885
882
877
879
880
878
875
874
873
874
876
875
871
869
871
875
882
883
879
884
886
892
897
902
903
903
906
912
918
925
926
926
933
938
944
945
947
948
951
958
959
961
957
956
958
965
967
965
963
960
959
957
962
963
961
962
963
962
962
960
959
961
962
963
965
965
959
955
955
958
964
962
963
959
956
956
960
959
960
955
955
955
962
959
958
958
955
960
960
962
959
956
956
960
962
961
957
953
952
960
963
966
960
956
955
958
960
962
959
957
959
962
963
962
960
960
960
962
965
965
962
958
958
961
967
966
962
959
960
961
965
969
965
963
958
966
968
972
969
969
974
978
978
979
977
974
977
981
983
979
981
982
983
988
990
988
985
982
982
982
984
986
981
976
973
974
977
977
972
971
967
965
965
966
967
965
966
971
974
972
969
965
966
965
970
974
972
970
964
968
969
967
968
970
967
971
973
972
969
968
968
975
984
1000
1022
1041
1066
1087
1106
1124
1139
1161
1195
1232
1269
1304
1333
1358
1375
1384
1382
1370
1332
1281
1218
1163
1122
1096
1076
1072
1070
1071
1069
1063
1053
1041
1030
1029
1027
1023
1016
1011
1004
997
995
985
977
966
961
958
954
945
937
935
933
932
938
936
933
929
927
929
932
930
931
925
922
922
926
924
923
922
920
923
922
925
919
917
916
920
921
922
917
912
908
910
910
914
911
907
905
905
907
905
903
897
898
894
895
893
890
890
886
889
893
889
880
877
877
881
882
882
876
874
875
879
883
883
884
881
884
891
895
895
896
900
903
911
921
923
920
920
922
930
937
941
943
944
947
949
955
959
961
963
965
968
969
970
966
964
965
971
973
973
968
964
964
969
971
972
971
968
966
968
968
968
966
965
966
967
970
968
965
963
965
968
971
971
967
963
962
963
969
969
965
963
960
963
966
965
964
964
964
967
968
968
966
964
964
968
975
969
970
964
963
966
970
971
974
970
970
970
970
970
968
969
969
970
971
968
968
966
968
971
972
971
969
967
963
970
974
974
973
969
967
969
974
977
973
972
975
977
980
980
980
982
982
983
986
986
984
979
982
985
991
992
988
984
983
985
989
991
991
987
986
986
987
986
981
980
974
975
975
972
974
970
969
970
973
971
971
969
969
972
975
973
970
969
970
974
976
976
972
968
970
974
976
976
977
972
974
978
996
1019
1044
1067
1085
1108
1140
1171
1207
1252
1291
1335
1372
1393
1399
1397
1380
1347
1289
1216
1150
1107
1085
1079
1076
1070
1064
1053
1046
1041
1035
1025
1019
1011
1007
1007
1003
996
985
973
966
962
956
954
948
941
935
936
936
940
936
935
933
934
933
931
931
930
927
929
930
927
924
924
924
927
927
924
921
918
919
920
922
920
914
911
912
911
914
914
910
902
901
901
905
903
900
897
893
894
897
895
893
888
886
888
888
888
889
887
888
887
891
892
893
895
897
903
908
911
913
912
918
927
937
940
940
940
950
956
962
964
965
962
963
967
972
975
973
971
970
969
977
976
974
971
971
972
976
975
973
970
972
973
974
971
970
965
967
969
969
970
968
964
966
967
973
971
965
963
962
963
966
967
969
965
965
965
970
971
970
969
969
969
971
972
974
975
976
979
982
981
982
979
982
992
998
1001
999
995
999
1012
1025
1031
1039
1044
1055
1073
1086
1092
1089
1084
1078
1075
1066
1034
971
893
816
764
726
688
656
633
623
619
624
627
628
627
630
641
663
682
694
701
714
735
747
751
753
760
769
785
802
816
830
840
847
853
860
865
873
879
894
914
933
950
967
982
999
1018
1030
1040
1045
1049
1049
1059
1068
1073
1074
1076
1083
1089
1094
1099
1104
1105
1109
1116
1123
1127
1126
1129
1132
1137
1145
1146
1147
1149
1154
1161
1166
1172
1174
1178
1187
1191
1196
1201
1205
1211
1214
1222
1226
1228
1230
1235
1238
1244
1250
1253
1248
1246
1248
1248
1249
1245
1243
1235
1235
1234
1234
1227
1217
1207
1199
1192
1188
1183
1171
1157
1145
1141
1137
1130
1113
1099
1088
1082
1075
1072
1064
1056
1048
1042
1037
1030
1022
1012
1007
1008
1004
999
997
992
990
987
985
981
976
976
979
978
980
980
977
974
974
973
976
974
968
965
967
968
972
971
968
968
965
966
970
970
970
967
964
964
965
966
965
960
960
960
963
964
962
958
958
957
962
963
961
959
958
959
964
963
958
957
957
958
959
960
957
958
956
959
960
956
951
951
953
956
957
955
954
950
953
955
955
957
952
949
947
953
955
956
954
951
952
955
956
959
958
953
948
952
955
956
957
952
952
953
954
954
955
952
950
950
953
954
955
952
953
953
951
950
952
951
952
954
954
952
949
949
947
952
957
957
953
951
950
950
952
954
949
949
952
954
958
962
959
956
956
962
966
971
968
967
964
966
967
970
971
966
967
968
969
970
969
965
970
968
970
967
962
961
964
962
962
960
956
948
952
952
957
958
956
953
954
957
959
958
960
954
952
953
960
961
959
954
951
956
964
962
961
960
963
980
1004
1030
1051
1072
1091
1123
1154
1190
1236
1277
1319
1360
1392
1409
1410
1407
1395
1366
1309
1229
1157
1102
1079
1075
1071
1061
1049
1033
1022
1018
1014
1012
1006
996
989
985
981
973
966
955
949
944
941
939
934
928
927
926
929
925
921
919
922
920
921
921
919
918
917
919
917
917
915
911
909
914
918
916
911
908
909
908
910
910
906
897
893
898
901
901
894
887
886
888
892
890
891
885
882
879
881
880
877
875
872
874
875
874
875
871
871
874
876
879
880
880
881
889
894
899
899
902
907
915
924
929
934
932
942
946
954
960
960
960
961
965
971
972
971
970
968
970
971
971
972
970
971
971
974
973
973
969
968
969
973
970
965
965
965
967
970
970
968
964
965
968
969
967
966
961
963
965
968
970
968
965
963
965
970
972
967
967
966
967
971
971
974
972
971
973
973
972
970
968
970
971
973
971
968
966
969
972
975
976
969
966
966
970
975
977
972
970
969
972
978
981
982
979
978
980
982
982
983
979
979
981
984
986
984
981
981
982
983
981
977
979
978
981
982
980
974
972
964
971
973
971
967
962
962
961
963
967
966
963
963
963
961
960
963
962
963
963
967
964
961
960
960
964
969
970
967
966
962
966
970
970
972
983
1000
1022
1048
1070
1091
1108
1131
1157
1191
1213
1241
1264
1299
1336
1371
1387
1385
1366
1333
1276
1208
1148
1105
1081
1068
1066
1064
1064
1059
1047
1040
1036
1028
1021
1012
1003
999
997
991
985
973
965
958
956
950
946
940
931
929
930
931
931
926
924
923
923
924
924
923
922
921
921
923
923
919
917
918
918
920
917
916
914
912
918
917
917
915
909
908
907
909
911
906
902
899
902
902
903
898
895
895
894
897
893
887
885
886
889
887
887
883
880
878
881
885
883
881
877
877
877
886
888
890
886
891
893
899
903
908
909
912
917
925
929
933
934
937
942
947
949
949
947
951
954
960
959
961
957
957
962
967
968
964
960
957
962
965
967
964
961
960
961
963
964
962
960
959
960
961
961
959
959
957
957
963
959
958
954
957
959
960
956
955
954
959
963
960
961
956
957
958
962
965
962
960
960
957
963
967
966
964
962
958
959
965
968
966
965
962
964
964
968
966
965
964
966
970
967
967
963
965
966
966
963
965
964
964
965
969
970
971
969
972
976
981
979
979
974
976
978
984
986
983
979
981
982
982
983
980
976
978
982
983
984
979
975
969
974
974
975
971
967
968
966
967
967
966
965
968
973
969
966
964
959
962
965
966
966
967
963
963
964
967
971
970
967
965
963
965
966
967
974
989
1009
1032
1058
1079
1097
1120
1147
1180
1220
1256
1292
1334
1371
1398
1410
1406
1390
1364
1325
1278
1226
1183
1143
1114
1098
1089
1086
1080
1072
1065
1055
1049
1038
1025
1019
1012
1012
1006
1001
993
983
975
970
966
962
959
950
944
940
937
933
931
928
925
925
928
924
926
921
924
927
929
927
923
921
913
918
922
923
921
916
916
916
916
912
914
910
912
912
911
908
903
899
900
901
905
906
902
897
892
893
896
897
893
888
882
883
882
883
879
875
874
874
874
873
874
869
866
869
875
874
872
871
872
878
884
889
889
890
888
890
899
905
911
914
915
922
927
930
934
937
940
946
951
955
955
957
960
967
971
970
970
967
965
968
970
970
969
966
967
968
970
973
970
970
968
966
972
973
971
972
970
971
971
965
964
964
964
965
970
965
966
962
963
964
968
970
965
962
959
961
963
966
964
962
963
961
964
964
963
962
962
958
965
966
966
963
960
961
966
966
967
962
961
964
969
968
965
958
961
965
969
968
966
960
961
963
967
970
969
967
967
969
973
976
975
979
974
976
977
980
977
979
978
981
984
987
987
987
986
984
986
985
984
981
979
980
983
980
979
973
972
973
976
973
969
962
963
965
970
974
974
969
965
966
970
972
972
971
971
971
971
970
971
967
971
972
975
974
971
970
974
989
1013
1037
1059
1074
1090
1110
1134
1157
1181
1215
1255
1301
1349
1387
1407
1406
1384
1341
1275
1203
1141
1101
1081
1072
1074
1071
1069
1063
1055
1048
1042
1033
1025
1018
1013
1013
1008
1002
989
975
972
966
967
964
958
951
946
945
945
943
942
939
938
938
938
939
938
936
935
937
937
934
934
932
930
932
934
934
933
928
927
929
930
931
926
923
922
924
926
923
921
918
918
920
922
921
918
912
909
911
912
912
909
902
898
899
901
903
899
894
895
894
893
896
894
892
894
895
898
899
897
891
893
898
905
907
907
909
911
918
925
929
931
931
934
935
940
945
948
952
956
960
970
972
971
972
973
978
983
981
979
979
977
979
986
986
984
984
981
986
985
986
982
979
980
980
983
983
978
976
974
977
983
983
979
974
974
976
979
979
978
976
975
975
980
979
978
977
975
975
975
976
977
975
978
980
984
983
978
976
976
980
982
980
979
974
976
977
978
980
978
975
974
978
979
982
980
977
978
981
982
982
978
978
978
979
982
982
980
980
979
979
980
982
981
980
981
983
989
992
991
987
986
991
996
996
994
990
990
992
998
999
998
998
993
991
992
994
994
993
991
988
986
982
983
980
980
979
980
976
975
973
971
975
980
982
978
975
972
973
975
977
978
976
972
974
978
981
978
977
976
980
983
984
980
979
976
979
992
1007
1027
1045
1062
1082
1099
1113
1123
1138
1154
1185
1221
1264
1307
1346
1378
1402
1411
1398
1363
1306
1235
1178
1139
1117
1105
1093
1089
1089
1091
1086
1073
1062
1052
1042
1039
1033
1026
1014
1005
1000
996
990
982
972
966
963
960
955
952
946
944
941
944
945
941
937
933
937
935
937
935
934
930
931
934
935
933
932
929
929
929
929
926
924
922
925
927
926
921
916
917
917
917
917
914
910
910
909
913
913
910
907
906
906
906
906
903
898
893
895
894
896
893
888
887
887
889
892
889
886
885
885
890
893
894
893
892
898
900
904
907
908
911
918
923
926
929
928
935
943
950
952
954
953
952
958
965
972
972
970
969
972
975
975
974
973
971
975
981
979
978
976
974
977
978
979
979
975
973
972
974
976
975
973
971
971
974
972
973
970
971
974
976
978
971
968
966
968
972
973
968
964
964
967
969
973
970
966
964
964
969
967
964
962
966
967
969
969
968
963
964
969
970
970
970
965
964
965
972
974
971
969
965
967
969
970
969
967
963
967
968
967
968
964
964
966
968
971
967
963
961
966
969
971
970
967
966
972
979
982
981
973
975
977
981
982
980
978
980
981
982
986
983
983
979
983
982
981
978
976
975
975
975
975
973
968
967
967
966
966
961
961
961
966
973
973
970
962
959
961
965
968
967
966
959
962
968
969
970
968
967
970
971
971
968
971
982
1001
1030
1051
1064
1074
1088
1109
1132
1157
1188
1227
1268
1312
1350
1380
1393
1387
1367
1327
1271
1209
1155
1116
1093
1078
1074
1070
1071
1068
1061
1057
1050
1039
1030
1017
1013
1009
1006
1002
991
976
966
960
956
953
949
941
937
933
933
934
929
928
925
925
927
924
926
922
919
920
922
924
920
918
916
918
921
921
918
912
911
910
912
915
915
912
906
905
908
908
906
902
902
902
904
904
901
895
892
892
890
894
892
886
881
883
884
882
879
874
872
872
873
874
871
873
871
874
876
878
878
872
878
882
886
891
891
890
897
901
909
914
913
915
915
923
930
935
938
939
946
946
953
957
956
957
958
963
966
967
965
961
961
966
970
972
968
964
962
962
969
968
970
966
962
962
964
963
965
963
964
968
969
969
964
961
961
964
968
967
965
961
959
961
965
967
962
961
959
961
963
964
966
961
956
959
963
964
962
959
961
961
964
965
962
960
960
962
966
967
965
961
961
962
966
971
968
965
964
968
968
969
967
966
966
967
969
968
965
963
962
968
971
968
969
965
966
971
976
977
979
975
975
978
981
984
979
972
973
978
980
986
986
983
976
980
986
986
986
983
979
978
975
976
976
974
974
972
971
971
964
964
963
965
970
970
967
963
965
968
969
971
967
963
965
966
971
970
972
969
968
965
971
973
970
970
981
1003
1031
1055
1077
1092
1106
1125
1145
1168
1194
1226
1271
1319
1366
1392
1401
1388
1360
1306
1230
1162
1109
1077
1070
1070
1074
1073
1065
1056
1048
1037
1029
1022
1018
1009
998
991
987
981
974
964
956
951
947
945
940
934
932
933
933
934
930
927
923
922
925
925
922
914
916
917
921
924
920
915
912
914
914
915
917
914
912
911
911
912
909
903
902
901
901
900
898
895
895
898
898
897
896
887
884
885
889
886
882
877
873
876
878
877
875
872
869
871
875
875
875
875
875
877
880
883
887
889
894
898
906
911
911
915
920
926
933
936
937
936
937
942
948
953
953
950
947
952
956
960
958
955
951
955
954
959
956
956
954
956
957
956
955
952
952
954
954
952
954
952
952
952
954
954
951
949
949
949
949
955
955
952
946
949
953
957
955
952
948
949
953
958
956
955
952
955
956
954
955
954
955
955
957
958
960
953
953
956
958
962
959
954
955
958
962
965
960
958
957
958
960
961
963
961
958
958
960
962
962
958
959
958
962
962
963
964
965
971
976
978
972
973
970
974
977
978
978
975
976
978
980
982
982
976
973
975
978
978
979
974
970
968
969
968
966
962
958
959
957
961
962
961
961
965
967
966
963
956
958
961
963
962
962
960
960
965
971
969
968
965
962
966
968
979
994
1019
1039
1063
1087
1111
1137
1168
1207
1255
1303
1347
1383
1408
1422
1421
1411
1380
1320
1247
1182
1143
1121
1105
1095
1085
1079
1073
1061
1045
1033
1023
1019
1015
1008
1002
989
975
968
961
957
953
945
935
934
934
933
933
931
926
925
927
932
934
930
925
922
919
923
925
922
915
912
913
919
919
918
911
909
907
911
911
909
908
903
903
905
903
900
898
894
892
890
891
889
888
886
889
888
888
882
878
877
880
880
880
880
879
880
882
891
890
890
888
889
894
900
911
915
918
923
928
939
944
947
948
950
954
961
967
967
967
965
966
967
969
968
968
969
968
969
969
968
968
969
968
967
970
968
967
966
965
969
969
968
967
966
967
967
972
968
964
962
965
968
970
966
960
959
961
962
966
964
964
961
960
961
963
960
964
961
963
962
964
963
963
965
966
964
968
967
964
963
965
967
968
966
966
967
968
971
972
968
966
963
967
969
972
971
969
967
968
967
973
973
971
966
970
969
975
980
979
979
983
984
983
978
978
977
981
985
985
986
987
988
992
992
994
992
988
988
991
994
993
989
983
980
980
983
987
983
976
971
972
973
976
980
976
976
975
978
978
977
974
976
977
975
978
975
977
974
976
981
985
985
983
982
978
980
984
991
1006
1033
1064
1094
1122
1146
1176
1215
1262
1310
1358
1390
1411
1422
1418
1408
1384
1341
1280
1212
1153
1118
1104
1097
1092
1086
1079
1072
1065
1054
1044
1036
1035
1029
1025
1018
1005
998
990
984
976
965
959
954
952
951
950
944
941
941
943
948
947
946
939
938
939
941
941
937
930
929
930
933
934
928
923
919
923
926
927
924
919
915
911
914
917
913
907
905
904
906
904
901
896
891
887
886
890
893
890
888
887
885
888
889
889
888
892
899
903
904
907
908
913
919
926
929
929
937
942
952
959
964
966
969
974
975
978
976
975
976
981
986
988
985
979
980
983
986
989
984
982
982
985
987
986
985
980
979
979
982
986
985
979
976
979
982
982
980
978
978
978
980
983
982
981
982
982
981
981
981
978
978
978
980
979
979
977
977
979
981
979
981
975
976
980
984
984
981
981
980
983
982
985
986
982
977
979
982
987
988
984
982
980
985
987
984
983
983
985
988
988
989
992
993
994
996
994
992
993
992
995
998
999
997
998
996
998
1002
1001
1001
999
997
1000
1001
1000
995
990
987
989
991
990
988
986
984
982
986
985
987
985
987
987
988
987
985
982
985
989
988
990
988
984
983
985
988
992
990
987
986
987
989
999
1011
1026
1046
1067
1090
1110
1122
1136
1154
1184
1220
1263
1308
1350
1382
1407
1411
1395
1348
1280
1204
1147
1114
1098
1092
1089
1084
1082
1084
1078
1067
1054
1044
1039
1035
1032
1025
1011
1001
993
990
982
977
973
967
962
959
955
954
950
946
945
948
947
945
942
943
944
940
944
939
937
935
936
937
939
936
932
927
929
931
934
932
924
926
924
925
929
925
922
917
916
917
918
916
910
913
914
911
911
905
901
898
898
902
901
899
894
894
894
896
892
891
889
892
891
896
901
901
902
901
906
912
919
925
925
931
937
943
950
952
957
959
963
967
970
971
971
973
978
983
987
979
978
974
979
984
985
981
980
975
981
983
989
987
983
982
981
984
983
979
979
979
982
982
981
980
977
977
980
979
980
978
975
973
976
980
983
983
978
973
976
978
981
980
976
973
975
980
977
977
978
974
973
977
976
977
975
973
975
982
983
980
978
979
981
984
984
982
979
975
979
983
984
985
981
980
978
979
979
981
978
975
978
980
981
980
976
976
978
981
982
981
981
978
986
989
992
995
992
990
991
993
993
992
995
994
991
995
995
995
994
995
995
995
996
993
990
993
996
998
996
990
985
980
983
983
988
986
977
975
974
977
980
981
980
976
977
978
976
975
972
973
975
981
983
982
977
975
976
981
985
982
976
979
980
985
985
982
981
983
991
1004
1019
1033
1047
1060
1080
1099
1117
1138
1164
1190
1228
1269
1312
1347
1382
1406
1425
1426
1415
1386
1338
1282
1232
1192
1166
1142
1122
1112
1104
1104
1103
1097
1084
1073
1063
1056
1053
1046
1035
1029
1024
1020
1016
1008
1000
992
985
982
977
966
958
953
950
950
948
949
943
940
941
940
942
941
941
940
940
939
941
939
935
934
937
939
940
937
931
927
930
931
934
931
926
925
921
926
925
925
923
921
921
925
922
918
914
913
912
914
914
910
903
903
902
902
906
903
896
893
893
893
891
890
888
887
889
890
891
891
889
891
895
898
900
901
903
907
911
916
920
926
925
927
933
940
949
953
954
957
962
965
970
972
974
974
978
981
984
980
978
976
983
987
991
986
984
979
982
984
988
988
985
985
984
988
987
987
985
984
985
985
987
985
980
978
980
986
985
986
982
979
981
985
986
985
978
975
977
981
986
987
982
976
975
977
978
975
977
981
982
983
984
981
976
975
977
979
981
982
979
975
976
982
986
985
979
978
978
980
984
982
981
979
978
982
983
979
979
977
979
980
981
982
980
978
981
985
987
986
982
979
977
982
984
985
984
984
984
988
992
993
993
992
991
993
994
992
990
989
993
999
1000
998
995
993
994
997
997
996
988
984
984
985
988
988
984
983
983
983
980
981
977
975
976
975
982
981
977
976
978
978
978
978
976
976
977
980
984
985
983
980
978
978
984
986
985
984
980
981
981
991
1008
1031
1054
1072
1086
1100
1112
1130
1155
1188
1224
1256
1292
1330
1367
1397
1418
1422
1413
1388
1349
1290
1227
1175
1136
1112
1098
1094
1092
1091
1088
1082
1079
1078
1071
1057
1043
1035
1029
1023
1023
1016
1007
999
991
986
982
975
965
961
960
959
956
945
940
936
935
939
941
937
933
930
931
929
934
931
932
931
930
934
939
936
930
921
923
923
929
927
921
920
920
919
921
919
916
914
913
912
915
915
910
906
906
912
912
908
905
898
898
898
898
896
892
890
886
885
884
885
882
881
881
882
883
879
878
875
876
880
883
883
877
875
873
878
884
886
886
889
890
894
896
901
899
904
910
918
926
928
930
931
937
946
956
960
959
957
962
968
970
972
973
975
975
978
981
979
978
976
977
980
984
982
976
976
978
984
985
985
980
972
972
976
979
979
977
974
974
976
978
975
973
974
970
974
974
973
973
972
974
976
977
975
971
969
973
975
977
975
969
970
972
974
981
977
976
970
972
973
977
976
975
976
976
980
979
978
975
973
976
977
977
974
974
973
976
978
982
977
976
974
978
981
982
980
973
972
974
978
981
979
977
975
978
980
988
986
984
984
985
988
990
988
985
985
987
990
993
991
991
987
987
985
989
984
980
980
981
984
984
982
976
974
974
980
981
980
973
969
970
974
975
975
975
972
975
974
975
975
971
972
974
979
980
981
976
978
979
984
985
983
977
974
972
975
985
1000
1019
1042
1069
1098
1126
1151
1178
1215
1258
1305
1351
1391
1419
1435
1444
1441
1434
1416
1376
1314
1240
1174
1133
1111
1102
1098
1095
1091
1083
1074
1060
1049
1041
1041
1041
1034
1025
1017
1012
1008
1002
992
982
977
970
967
961
956
949
943
941
945
946
944
939
933
939
942
943
943
939
936
935
934
937
933
934
930
931
932
932
932
929
927
927
927
927
925
921
916
922
921
924
919
914
913
910
911
914
911
907
905
902
904
903
901
897
893
891
894
893
888
884
883
884
889
888
887
883
878
882
886
888
891
892
890
893
896
902
908
907
911
913
920
924
926
928
933
940
948
954
954
957
959
962
971
976
976
975
972
973
978
982
984
981
975
979
980
982
980
978
976
978
977
980
979
976
977
976
977
979
975
971
970
974
976
979
977
975
971
971
976
977
977
973
967
970
972
975
977
972
972
972
971
972
973
972
972
972
976
978
976
974
971
972
976
978
977
973
973
973
976
980
978
974
971
974
978
980
979
974
974
972
974
977
978
975
971
974
974
976
975
972
974
975
978
978
978
974
973
975
980
985
984
985
982
985
988
990
988
986
983
986
989
992
990
988
989
988
993
989
984
979
976
978
983
982
979
976
974
974
978
980
977
973
970
971
972
973
974
970
967
969
974
971
971
970
965
967
969
971
975
975
973
975
976
977
977
976
976
978
983
983
977
976
986
1010
1039
1062
1078
1091
1104
1119
1140
1160
1188
1219
1258
1302
1345
1388
1416
1423
1415
1385
1335
1262
1196
1150
1123
1111
1106
1103
1098
1093
1086
1078
1073
1063
1055
1041
1032
1027
1021
1015
1007
998
985
980
977
971
964
958
951
949
949
949
945
937
937
936
937
940
935
930
930
930
933
933
931
927
926
923
927
929
929
925
922
919
920
923
919
919
915
911
916
914
911
910
906
907
906
907
903
899
898
896
899
900
894
891
884
886
889
889
884
881
877
875
876
882
878
876
877
877
881
885
886
885
888
894
899
903
906
908
909
914
922
931
933
937
937
942
950
959
960
961
964
961
965
973
974
973
973
970
975
977
976
973
971
971
972
972
973
970
971
972
972
972
972
967
966
970
970
974
972
966
964
965
967
969
966
964
963
962
966
970
969
969
964
963
965
965
966
962
959
959
961
964
965
966
965
962
965
964
968
963
963
969
969
971
969
969
970
971
970
968
962
959
959
959
967
969
965
964
965
966
967
972
969
963
962
965
969
974
980
971
974
974
978
982
981
979
973
975
978
982
986
984
981
976
976
976
977
976
974
975
975
975
972
969
967
970
971
969
966
963
962
964
967
967
969
967
966
964
967
970
965
965
963
963
967
973
973
971
967
967
970
974
976
971
969
973
976
983
1000
1021
1050
1073
1103
1126
1154
1187
1228
1273
1319
1362
1393
1413
1425
1423
1413
1379
1314
1234
1161
1115
1099
1096
1093
1087
1077
1068
1065
1057
1047
1037
1029
1025
1021
1019
1011
1004
992
984
972
967
962
954
950
948
944
943
942
938
934
937
940
944
939
936
932
932
933
937
932
927
926
925
931
934
931
926
919
921
921
923
920
920
917
915
917
918
914
909
906
902
903
907
904
904
898
897
895
895
893
888
886
888
892
893
892
884
881
881
886
888
889
889
885
889
895
899
900
904
906
907
914
921
925
928
930
936
942
951
957
955
961
968
972
974
978
975
975
975
977
981
983
982
976
976
979
982
981
981
976
974
976
981
979
976
973
975
977
977
977
975
973
973
974
974
971
969
970
971
974
976
972
967
967
965
970
976
974
970
966
967
971
976
976
973
970
971
972
973
976
973
971
971
971
975
972
973
973
974
973
976
974
972
972
973
973
976
974
970
971
971
976
976
976
975
974
973
976
980
978
977
976
977
987
991
992
989
982
984
985
993
993
993
989
990
992
991
991
991
985
987
986
986
982
979
975
972
975
974
977
976
971
972
974
975
973
974
971
973
972
973
974
970
972
970
974
977
974
972
971
974
977
981
982
978
976
976
984
999
1028
1050
1068
1084
1103
1125
1145
1171
1200
1234
1271
1308
1351
1388
1409
1415
1396
1346
1265
1187
1136
1110
1103
1098
1092
1088
1084
1080
1074
1066
1057
1043
1035
1028
1022
1016
1007
993
982
975
972
967
963
957
951
948
946
946
946
942
939
938
938
937
940
935
931
932
931
932
932
929
925
925
931
931
926
926
922
924
923
925
924
917
914
915
920
919
916
911
904
904
908
906
905
902
900
896
896
896
896
890
889
886
888
886
885
885
884
883
889
890
890
888
887
889
897
903
908
911
913
921
925
934
937
938
940
944
954
965
967
966
965
968
972
976
975
974
973
974
977
980
980
980
978
975
978
978
977
978
974
974
976
978
979
974
971
971
974
976
975
969
966
966
971
976
977
974
975
974
975
976
972
970
969
966
968
971
972
971
969
967
968
969
969
971
967
972
972
976
971
972
969
969
971
974
974
971
968
969
973
978
973
969
964
967
967
971
975
972
970
971
974
971
975
976
973
978
982
986
985
985
985
986
987
989
988
981
981
984
989
993
993
987
983
988
994
996
993
986
980
980
985
982
982
981
975
973
972
976
975
974
969
972
974
977
974
969
963
965
971
973
974
974
973
974
972
977
977
976
971
971
981
1004
1029
1049
1068
1086
1114
1147
1180
1219
1260
1312
1360
1401
1417
1414
1389
1342
1275
1212
1160
1125
1105
1094
1094
1092
1084
1070
1060
1051
1042
1036
1029
1019
1012
1004
1002
994
989
982
970
965
959
957
950
944
937
937
938
942
938
937
930
928
934
935
934
936
935
934
933
930
930
928
926
927
927
924
921
921
918
917
922
920
917
915
910
909
911
912
908
904
899
894
901
898
896
894
890
888
889
889
890
888
883
884
882
883
883
885
884
887
889
889
891
893
897
902
908
913
917
917
919
919
929
939
946
949
951
953
961
968
970
971
973
974
976
981
985
984
982
982
981
985
984
981
982
983
985
986
985
983
979
982
982
984
983
976
973
976
979
984
981
982
977
975
979
981
982
979
979
977
978
979
980
980
980
981
983
987
983
981
975
977
981
984
982
980
979
979
983
988
986
983
980
978
981
983
984
983
982
986
986
987
984
981
981
983
984
988
986
983
981
984
988
988
986
983
984
988
990
997
998
999
993
992
994
997
998
997
994
997
1001
1004
1002
1002
999
1000
1000
1003
1003
999
997
996
1000
1001
995
992
986
984
986
987
988
982
980
982
983
982
987
984
985
983
983
986
984
984
981
981
984
986
987
985
986
987
990
990
990
984
989
996
1019
1047
1075
1096
1116
1142
1176
1216
1259
1299
1339
1386
1423
1446
1452
1447
1426
1383
1315
1230
1156
1112
1089
1086
1086
1086
1079
1066
1055
1046
1039
1035
1029
1024
1021
1016
1009
1003
992
980
972
968
966
963
954
950
948
949
953
957
952
949
944
942
943
947
943
939
935
936
940
941
941
935
929
931
929
936
935
933
930
928
927
928
927
923
922
918
919
918
915
912
909
910
906
908
905
904
898
899
899
900
896
892
890
891
891
895
892
893
891
891
896
905
907
907
909
909
916
924
930
935
938
943
950
958
959
963
963
968
970
974
973
973
975
974
981
985
984
981
981
983
984
988
985
980
978
981
984
986
983
980
976
977
977
982
983
979
977
974
976
974
977
975
973
971
975
978
978
973
974
975
978
977
978
974
972
973
975
979
977
974
971
972
975
982
980
976
974
975
975
977
978
977
974
975
978
977
976
976
976
976
979
980
977
973
971
974
980
986
984
979
975
977
977
979
980
979
976
979
982
987
992
992
989
991
992
991
991
987
985
990
995
999
997
994
990
992
994
990
994
992
990
990
989
993
992
990
986
982
982
982
980
977
973
974
973
978
978
977
976
973
976
976
974
973
973
972
977
979
979
972
970
970
971
979
981
977
974
974
975
982
988
1008
1029
1047
1060
1076
1087
1101
1122
1147
1183
1226
1267
1304
1348
1386
1416
1430
1422
1387
1332
1266
1207
1172
1144
1123
1105
1093
1088
1088
1083
1076
1060
1050
1043
1036
1030
1023
1011
1003
1001
994
984
978
971
968
963
960
954
946
939
934
933
938
936
933
929
929
926
929
930
927
926
923
923
927
922
920
915
921
923
925
920
917
913
915
914
916
913
909
906
907
906
910
911
908
904
901
903
903
900
895
894
891
888
888
887
883
881
880
883
882
879
876
874
872
873
875
875
874
871
872
872
876
881
879
881
886
892
897
899
902
900
906
912
917
922
921
925
928
937
944
949
952
950
955
959
965
967
967
969
970
972
973
974
970
970
972
973
974
974
970
970
969
970
974
976
973
971
972
972
974
969
971
970
970
972
972
967
967
964
964
969
972
974
969
964
964
968
971
972
967
963
961
962
965
966
967
964
964
968
969
968
967
963
962
966
968
966
967
964
965
967
970
968
970
966
963
968
970
969
969
968
965
973
975
973
968
962
967
966
974
972
970
966
964
965
973
970
969
966
968
973
973
971
971
969
975
980
982
983
980
978
979
984
989
989
989
981
984
987
992
989
986
983
982
985
988
988
989
983
986
984
986
983
978
975
974
975
974
971
967
965
963
966
970
974
972
972
969
973
971
972
968
966
967
970
974
969
966
967
965
971
975
976
972
970
970
971
977
975
970
974
982
997
1015
1040
1058
1074
1093
1119
1144
1168
1199
1235
1273
1312
1356
1386
1404
1417
1426
1428
1423
1398
1362
1310
1242
1180
1135
1107
1087
1078
1074
1075
1074
1067
1055
1044
1033
1033
1026
1024
1020
1014
1010
1008
1005
995
985
973
965
963
958
952
943
937
932
930
933
930
928
925
924
925
926
925
923
919
920
923
926
924
922
917
917
916
919
919
916
913
914
911
911
909
909
908
910
904
907
907
902
900
898
899
903
902
897
889
890
892
894
893
886
880
879
883
884
883
881
878
876
877
877
874
871
865
869
868
873
871
869
866
868
870
876
877
876
877
879
882
885
887
891
894
901
907
913
917
918
925
928
934
943
948
943
946
946
954
956
956
957
958
958
961
965
965
964
962
962
963
965
964
960
960
964
966
968
966
962
962
961
965
967
967
962
959
956
960
964
966
962
958
958
960
961
961
963
958
959
963
962
961
958
959
960
962
963
960
958
958
962
961
963
961
958
957
959
962
964
962
960
959
959
961
963
961
956
958
958
960
960
962
960
958
961
964
964
964
960
957
960
963
967
966
963
958
957
962
964
965
965
968
968
971
974
977
973
967
974
977
976
975
973
970
974
977
982
981
976
973
971
975
981
982
978
974
970
972
973
969
969
966
963
967
963
963
958
957
955
960
963
964
961
958
961
962
962
962
961
959
960
960
961
957
959
958
959
958
959
961
958
960
961
962
960
955
954
957
967
983
1008
1031
1053
1070
1090
1113
1142
1172
1206
1241
1280
1324
1365
1394
1409
1414
1410
1397
1370
1328
1277
1219
1164
1121
1096
1081
1072
1064
1061
1056
1051
1045
1037
1026
1019
1014
1010
1001
996
989
987
984
981
976
966
958
951
947
946
943
937
931
927
928
928
923
920
918
917
919
919
919
915
913
910
913
917
917
914
911
909
910
909
913
908
907
902
904
905
904
901
899
901
903
905
903
896
890
892
896
899
897
891
887
886
886
888
887
884
878
876
878
878
874
870
871
869
873
877
872
869
868
867
871
876
873
872
869
872
878
883
882
888
889
889
892
900
902
902
907
914
921
926
932
934
935
940
950
954
954
954
951
952
957
962
965
964
961
957
963
963
965
964
959
957
961
962
963
961
959
961
960
961
957
956
957
957
958
964
960
957
954
952
957
961
960
959
954
955
957
959
961
959
957
957
958
959
958
957
958
954
960
962
958
959
958
959
961
966
963
960
954
958
961
965
966
962
959
954
963
962
964
961
956
958
960
962
963
960
959
956
957
961
964
958
958
959
962
962
960
960
960
963
967
967
967
969
971
973
981
983
980
975
975
972
978
982
982
979
976
978
984
983
978
977
975
975
975
977
979
973
965
966
964
967
965
963
959
958
958
965
965
966
965
964
966
967
963
960
958
958
963
965
965
962
963
963
969
971
971
965
960
960
969
981
1002
1025
1048
1071
1095
1120
1149
1181
1222
1264
1314
1358
1391
1408
1413
1409
1401
1375
1318
1240
1170
1128
1104
1093
1083
1077
1071
1067
1062
1055
1043
1032
1023
1019
1018
1018
1009
998
986
979
970
964
958
949
939
936
935
936
934
932
930
927
927
930
926
927
925
926
926
927
923
920
918
918
920
921
919
914
912
912
915
916
915
911
907
906
905
909
907
903
898
897
898
898
892
890
889
888
889
889
886
880
878
878
880
881
880
875
874
875
879
879
879
874
872
875
878
884
884
883
883
886
889
897
901
904
908
912
918
924
933
938
941
943
948
953
956
952
959
958
964
965
967
965
962
962
965
971
970
966
963
964
966
968
966
963
959
957
960
964
962
963
963
958
959
964
968
965
960
958
956
962
963
961
958
955
953
957
959
957
957
956
960
963
962
958
957
959
960
962
960
956
955
959
961
963
963
957
957
959
963
965
965
961
960
958
964
962
964
961
959
961
963
970
970
968
960
959
958
964
964
963
962
961
959
962
967
964
962
962
966
967
970
968
968
972
975
978
977
973
973
974
977
981
983
977
977
979
981
985
979
977
970
973
974
979
978
971
964
966
968
972
969
962
957
956
960
964
963
963
961
965
967
966
963
965
966
966
968
971
970
969
971
972
973
972
973
969
970
970
977
988
1004
1026
1046
1068
1096
1124
1152
1184
1222
1259
1298
1335
1362
1380
1384
1384
1377
1350
1300
1228
1163
1118
1093
1086
1079
1076
1070
1061
1055
1046
1037
1029
1026
1022
1020
1016
1005
997
986
977
969
967
962
953
946
938
939
940
941
937
933
929
932
933
935
930
927
928
929
932
931
927
923
923
923
924
923
918
918
919
918
920
922
917
912
912
913
917
912
907
902
902
902
905
900
898
893
891
892
895
891
892
883
882
881
883
883
881
875
875
877
881
882
883
883
880
882
887
888
888
889
896
903
913
919
921
924
925
936
943
946
949
949
952
960
965
968
966
964
965
968
972
974
970
968
968
969
969
970
968
968
969
970
972
969
965
964
966
965
968
968
965
961
962
966
970
966
960
961
962
964
969
969
966
961
960
966
965
969
961
963
960
965
968
967
966
963
959
962
964
969
968
964
963
964
968
968
966
961
960
964
966
967
964
958
962
961
963
967
966
964
962
963
966
966
967
965
961
966
967
966
968
965
969
971
974
975
975
975
975
978
980
979
978
980
980
980
980
979
973
970
967
973
976
973
972
968
965
967
965
965
959
955
956
961
959
962
960
958
959
963
968
965
960
954
956
956
961
966
965
963
963
967
969
972
971
971
972
970
971
981
993
1017
1043
1065
1084
1103
1127
1153
1190
1232
1270
1310
1346
1378
1393
1400
1398
1378
1332
1256
1176
1117
1087
1074
1069
1064
1063
1060
1056
1049
1040
1029
1022
1016
1013
1008
1000
989
976
967
964
959
950
943
939
938
932
930
927
924
925
926
930
930
924
919
919
923
926
925
920
912
915
918
921
920
917
910
907
915
916
913
909
909
907
909
911
908
905
903
900
900
902
898
896
892
893
895
895
893
888
883
879
883
884
884
878
872
873
877
881
880
876
874
873
875
878
882
880
884
887
892
900
899
903
909
915
922
925
929
934
937
944
948
953
952
954
952
954
959
964
963
961
959
958
961
964
962
961
958
955
957
963
965
964
962
962
960
961
960
957
956
954
957
960
957
955
955
953
956
961
960
955
950
952
955
958
960
956
954
951
959
961
960
958
954
956
959
961
964
960
956
955
958
962
959
960
956
956
956
959
960
960
958
954
956
956
956
955
953
956
960
963
961
955
955
955
959
964
961
955
953
953
956
963
962
960
957
957
955
962
964
962
962
963
965
971
969
970
969
968
973
978
976
978
975
973
975
975
970
968
964
962
965
971
968
960
954
957
962
962
960
956
950
950
949
955
955
952
951
952
950
953
953
951
949
947
950
954
958
957
956
956
957
964
964
961
960
961
963
966
964
961
970
989
1014
1041
1057
1072
1086
1102
1129
1158
1186
1216
1248
1288
1334
1370
1386
1386
1371
1334
1278
1212
1153
1114
1095
1086
1082
1081
1078
1074
1068
1061
1057
1051
1041
1025
1016
1008
1000
997
989
976
968
959
953
949
950
943
938
933
931
932
929
926
924
925
925
926
921
919
914
913
915
918
915
911
906
907
911
916
912
911
908
904
903
903
903
899
897
896
897
897
894
894
889
891
889
890
890
887
884
880
882
881
883
873
869
868
870
872
873
867
862
859
860
860
863
860
863
863
866
870
868
867
870
870
876
885
885
888
890
896
906
915
919
917
915
917
923
931
936
937
939
944
949
953
955
951
951
954
957
961
961
958
956
957
961
961
960
956
952
951
955
957
957
956
957
955
956
957
957
956
954
950
954
955
952
949
946
950
952
954
956
953
949
950
951
955
951
948
946
944
947
950
952
952
950
951
950
952
949
950
952
951
951
953
951
950
949
950
953
954
952
948
946
946
947
954
954
951
946
945
949
952
954
950
950
948
952
952
953
951
950
951
955
955
956
953
952
953
955
957
958
958
957
957
962
966
965
965
963
963
964
971
970
971
966
965
966
970
968
962
960
959
957
957
958
959
955
952
953
955
952
952
948
949
946
951
948
951
947
946
950
952
950
947
948
950
957
961
962
960
953
953
955
962
962
958
956
954
960
971
990
1007
1032
1050
1071
1092
1112
1129
1152
1181
1220
1270
1313
1350
1372
1382
1378
1362
1319
1259
1186
1130
1096
1077
1067
1060
1056
1054
1057
1057
1049
1035
1022
1013
1008
1004
1002
990
978
966
957
956
952
947
939
935
934
932
928
921
920
917
920
921
918
915
911
913
915
915
914
913
908
908
915
917
917
912
908
904
905
909
906
902
902
900
901
900
899
897
895
893
894
890
892
886
886
887
886
887
883
878
875
872
873
875
875
874
866
862
860
863
863
865
861
860
862
864
867
865
864
866
873
877
878
879
880
887
895
905
908
906
908
914
920
927
930
934
933
937
940
947
948
948
946
949
953
954
954
956
949
954
957
958
956
958
954
954
957
957
960
957
953
952
953
957
958
952
949
951
954
955
955
952
949
954
956
958
957
955
951
950
952
955
954
950
949
949
950
952
952
952
951
951
950
954
952
951
948
949
952
951
950
950
947
950
951
958
957
953
947
945
949
956
956
952
948
947
951
953
951
950
949
948
949
952
950
949
947
952
952
954
953
953
950
950
952
956
960
959
958
957
959
962
964
966
964
965
966
967
968
965
967
965
970
972
970
967
964
962
961
967
968
966
962
959
958
960
962
961
956
951
950
952
950
949
951
953
956
955
953
952
948
949
951
955
954
952
949
950
953
957
959
953
954
952
954
962
963
958
959
968
989
1019
1043
1062
1080
1102
1134
1168
1201
1233
1257
1283
1314
1349
1377
1388
1379
1348
1298
1233
1165
1108
1075
1059
1057
1058
1057
1049
1038
1031
1026
1025
1021
1012
1002
994
989
983
977
963
954
947
942
938
935
925
922
918
918
922
920
916
916
910
915
916
914
912
906
908
911
914
912
909
907
905
907
910
910
907
904
902
901
902
901
900
898
897
898
898
895
892
891
891
891
888
886
880
876
877
879
883
882
880
871
869
869
871
871
871
864
862
864
865
868
866
866
868
867
872
871
873
875
878
882
888
893
893
896
902
911
919
920
924
922
926
932
936
938
943
941
942
945
948
946
950
948
951
953
954
956
954
952
950
954
956
955
951
946
947
951
954
955
951
949
947
947
953
954
953
949
947
947
952
949
950
944
946
948
950
951
948
944
941
945
948
948
950
947
945
945
947
948
948
950
951
954
953
949
952
949
952
953
953
955
945
946
949
950
955
954
953
952
953
952
952
956
954
953
950
951
951
955
952
948
948
952
953
953
952
947
950
953
954
957
952
953
955
957
962
963
961
958
959
959
965
967
970
967
965
966
966
968
968
969
971
972
978
978
971
965
964
965
970
966
963
956
953
954
956
960
954
954
951
951
952
951
950
951
952
955
958
955
949
948
951
953
959
961
958
953
951
951
957
957
956
954
951
955
957
960
959
955
955
966
979
1000
1017
1034
1051
1071
1094
1113
1131
1154
1178
1210
1241
1279
1316
1348
1370
1383
1388
1373
1340
1283
1216
1158
1118
1096
1080
1072
1066
1067
1064
1052
1042
1034
1029
1024
1022
1013
1006
995
984
977
973
972
960
950
942
940
937
932
925
918
916
917
920
918
915
912
908
910
911
912
911
906
907
907
912
909
908
904
908
910
911
909
906
900
900
899
899
901
898
894
895
896
895
898
896
890
888
885
888
883
880
878
883
885
885
884
878
873
869
874
875
872
867
864
861
863
867
866
861
854
855
854
856
856
859
860
861
868
871
871
870
870
874
882
889
894
890
896
900
905
912
915
920
922
923
926
933
937
940
942
944
949
950
953
951
949
949
958
960
961
957
952
948
953
958
961
961
955
953
958
957
953
956
954
952
956
953
957
956
955
953
956
956
960
958
953
947
949
954
955
956
952
951
953
953
950
948
949
950
952
953
953
952
950
950
950
953
951
950
946
950
953
954
955
952
952
950
953
954
952
950
948
952
956
959
954
950
949
951
954
958
960
958
955
953
954
956
958
957
957
954
953
957
954
958
954
960
963
967
967
967
963
963
964
967
968
970
969
968
973
972
973
972
975
976
976
975
975
971
972
973
973
973
971
970
966
961
965
968
968
966
962
958
957
959
958
958
954
958
959
961
961
956
955
954
956
960
961
957
957
957
960
962
962
958
959
960
965
968
964
967
963
961
966
976
995
1015
1031
1049
1072
1090
1111
1129
1149
1173
1198
1228
1260
1298
1335
1370
1390
1397
1390
1363
1313
1242
1170
1121
1090
1073
1058
1054
1052
1053
1047
1038
1029
1023
1018
1011
1006
999
994
991
986
980
970
963
953
946
946
940
937
932
927
929
929
932
929
928
925
925
924
925
922
923
920
918
919
922
925
923
922
919
918
917
919
918
915
913
917
916
919
915
912
909
909
909
912
910
902
898
901
904
902
897
891
891
891
894
892
887
882
882
882
887
887
882
877
877
876
881
881
882
880
882
883
890
895
895
890
897
900
906
911
911
914
919
926
938
942
946
944
943
950
958
958
961
959
957
958
961
962
963
964
962
963
966
967
963
959
958
963
964
962
960
959
958
963
967
963
960
956
958
959
960
961
959
956
954
954
957
959
957
956
953
956
957
961
956
956
954
959
962
961
959
957
957
961
960
959
958
956
958
962
965
963
956
954
955
959
963
968
963
960
959
960
965
965
964
961
957
960
964
964
963
961
960
963
965
969
967
968
969
972
970
972
972
969
973
972
974
977
974
974
970
974
978
979
973
969
971
972
973
972
968
966
958
961
962
959
960
957
953
956
958
958
958
955
954
957
957
958
954
953
952
954
957
954
953
954
954
959
961
961
957
954
953
955
965
975
988
1003
1020
1043
1065
1085
1105
1131
1163
1201
1241
1281
1319
1348
1367
1376
1372
1347
1300
1240
1178
1134
1109
1092
1073
1057
1043
1041
1040
1037
1031
1018
1008
997
996
992
984
974
965
959
952
950
944
940
937
931
932
927
921
918
918
921
921
920
917
914
914
914
918
917
914
911
908
913
916
915
914
911
907
906
910
907
909
905
902
902
903
903
899
898
896
895
897
896
893
889
887
890
888
888
886
880
878
880
881
882
876
872
870
873
874
874
874
874
874
879
883
887
888
887
891
897
905
912
912
917
919
925
936
938
941
946
945
948
953
957
952
953
957
960
959
964
963
956
957
958
958
961
959
956
959
962
964
963
961
959
957
959
960
956
958
953
955
961
960
960
956
952
951
951
960
959
958
955
954
955
960
962
959
956
955
956
957
956
958
956
954
956
963
964
964
960
955
957
956
959
960
955
952
956
958
960
961
959
957
955
959
958
961
960
957
960
962
963
963
968
969
972
974
972
968
967
970
975
978
977
977
977
973
971
975
975
973
972
971
971
972
971
969
966
963
962
961
963
960
957
957
962
966
966
967
959
956
959
962
965
964
960
960
962
964
962
962
965
962
967
969
968
968
973
992
1017
1043
1064
1080
1093
1110
1127
1151
1174
1206
1245
1286
1325
1349
1359
1346
1313
1261
1196
1145
1108
1084
1071
1062
1063
1064
1060
1052
1049
1041
1036
1024
1017
1010
1002
995
991
984
977
965
958
950
944
944
938
930
923
926
932
935
934
932
928
924
924
926
929
923
920
919
921
923
922
922
918
914
915
915
915
915
915
913
917
914
912
905
901
903
904
904
905
903
902
899
893
888
887
886
883
888
887
889
885
882
874
874
878
882
884
879
878
878
882
888
893
892
893
896
901
908
914
920
921
923
930
934
945
946
949
949
954
955
963
966
965
960
960
963
965
971
968
970
969
966
965
966
969
969
972
971
969
969
966
966
965
969
967
965
963
965
966
970
969
964
959
960
964
968
970
962
961
959
960
966
964
962
961
959
962
965
971
967
964
964
964
969
970
967
965
964
964
967
969
970
970
969
968
968
970
971
969
965
967
967
972
971
971
970
971
973
976
979
982
983
980
981
977
978
978
978
980
982
985
986
984
985
985
986
989
985
983
984
981
983
984
984
979
976
978
981
979
974
970
967
965
969
972
974
973
968
964
969
970
970
972
967
968
971
972
972
970
970
973
976
975
972
969
968
976
988
1007
1028
1049
1070
1092
1117
1139
1154
1174
1195
1226
1267
1317
1361
1391
1403
1398
1379
1330
1256
1179
1120
1090
1078
1073
1065
1061
1054
1051
1047
1040
1034
1021
1016
1008
1010
1005
997
985
978
969
965
963
955
947
937
935
940
942
940
936
935
936
935
935
931
928
927
928
933
932
930
927
927
926
925
926
919
918
922
922
926
926
922
918
914
915
918
917
912
909
908
910
910
911
907
902
899
898
899
897
894
889
890
892
893
893
888
880
881
886
888
889
883
882
881
885
892
893
895
892
893
899
902
909
916
917
922
925
935
942
945
950
951
953
960
964
967
966
966
965
969
972
970
969
970
970
975
974
970
971
967
972
975
974
970
968
969
970
972
972
971
966
966
968
972
974
970
968
963
967
969
973
970
968
964
964
966
969
972
967
965
966
969
970
972
969
968
968
968
970
967
965
966
967
971
972
971
970
968
969
974
971
969
968
966
970
971
971
968
966
965
968
968
969
970
968
971
972
977
981
980
977
973
978
981
985
983
979
983
984
988
989
991
986
979
979
980
982
983
981
982
981
980
981
975
970
970
970
969
968
964
965
967
969
972
976
968
965
964
965
967
972
967
966
965
964
968
969
967
963
965
969
967
972
968
966
972
983
1000
1015
1034
1053
1072
1093
1119
1146
1179
1215
1260
1303
1347
1380
1397
1398
1378
1340
1272
1206
1155
1125
1109
1097
1087
1075
1067
1062
1056
1048
1044
1035
1027
1018
1009
1005
1000
997
983
974
969
964
965
963
955
946
940
937
938
939
934
930
929
928
931
932
931
928
922
924
927
930
930
926
923
925
927
923
924
921
920
919
923
924
918
914
910
911
917
918
914
909
906
907
908
908
906
904
903
904
905
904
899
897
893
895
897
894
893
885
886
885
889
893
890
885
884
886
890
889
891
889
890
892
897
901
904
902
908
910
918
924
925
930
934
943
948
953
955
953
953
957
963
968
967
966
964
966
970
974
973
974
971
970
971
971
969
968
969
974
977
978
977
975
971
970
970
974
970
967
965
968
971
971
969
969
968
967
966
970
968
967
968
969
968
966
966
962
962
962
965
968
966
961
959
963
968
969
972
967
963
964
964
966
966
966
968
967
970
971
969
966
965
966
968
968
968
967
966
969
971
972
970
965
963
966
972
972
974
969
968
970
973
977
972
971
970
971
978
982
983
981
982
983
987
989
989
988
986
989
991
993
987
985
985
990
989
989
985
983
981
982
985
989
988
984
980
978
978
981
976
973
973
975
974
973
971
967
967
972
976
974
971
968
967
970
975
975
973
971
969
968
974
979
980
977
977
977
979
978
978
984
999
1020
1046
1066
1081
1098
1115
1142
1168
1200
1231
1259
1291
1327
1360
1380
1392
1396
1399
1399
1386
1353
1300
1235
1176
1136
1112
1099
1085
1077
1074
1071
1068
1064
1054
1042
1034
1028
1024
1021
1016
1016
1010
1006
1002
994
984
971
965
959
960
957
950
943
939
940
939
944
941
936
933
930
933
934
932
928
931
932
931
932
930
927
926
928
931
931
929
926
925
924
927
927
927
924
920
919
921
923
917
914
914
916
916
916
913
910
906
905
909
907
906
899
893
895
899
902
898
892
890
892
889
888
888
888
886
890
893
895
893
890
888
892
897
902
902
900
901
907
911
917
921
925
924
930
938
942
940
943
945
950
958
962
965
962
964
967
970
976
975
973
972
974
978
978
979
978
976
975
978
980
978
977
976
979
979
981
981
977
973
975
978
982
981
978
974
974
977
979
977
975
974
974
979
978
978
973
970
972
975
975
974
974
972
974
975
974
972
970
971
970
977
977
974
971
967
970
976
978
977
971
971
974
976
975
975
974
973
976
975
976
976
973
973
977
980
978
975
973
971
974
980
982
977
974
970
971
977
977
975
973
973
972
977
980
979
980
983
986
988
991
988
987
987
993
997
1001
1002
1000
996
995
999
997
996
992
989
988
992
993
992
989
983
981
985
981
983
977
973
974
976
974
975
972
972
978
977
984
980
975
971
971
976
977
976
973
973
971
973
976
976
974
976
976
980
984
982
978
981
995
1019
1041
1057
1076
1093
1113
1144
1172
1202
1241
1279
1319
1356
1387
1403
1410
1410
1408
1396
1368
1314
1246
1185
1141
1118
1096
1089
1079
1077
1073
1071
1066
1053
1041
1032
1028
1027
1024
1019
1010
1004
999
993
985
976
966
960
956
954
949
944
936
937
939
943
940
936
934
930
935
936
937
933
933
929
929
934
934
931
930
927
925
925
930
926
923
922
922
926
926
921
919
918
919
920
922
919
915
912
911
912
910
911
910
907
907
905
903
901
897
896
897
893
895
893
886
884
885
888
892
891
890
888
889
891
893
896
895
898
902
907
910
912
916
917
925
930
934
936
933
939
944
948
955
958
955
958
961
967
970
971
971
974
973
979
980
979
976
977
978
979
979
978
973
972
976
979
980
981
976
977
977
975
977
974
976
975
976
977
978
975
970
969
974
979
984
985
978
972
971
974
976
973
969
969
970
974
975
971
968
970
969
975
975
973
969
968
971
976
977
977
974
973
973
975
975
974
973
971
970
974
974
976
972
974
975
978
977
972
970
970
974
981
982
982
980
976
976
976
977
978
978
977
981
985
988
984
983
983
992
992
994
990
987
987
990
993
996
997
996
996
996
994
994
993
988
990
992
995
994
990
987
985
984
985
984
978
974
972
973
976
978
979
976
974
974
979
978
977
975
971
973
975
978
978
977
975
976
979
976
978
977
976
981
984
983
984
983
992
1015
1041
1066
1082
1094
1111
1136
1167
1202
1233
1258
1280
1310
1344
1370
1391
1394
1380
1345
1292
1228
1171
1128
1104
1094
1089
1088
1083
1078
1071
1067
1067
1062
1053
1041
1033
1027
1024
1017
1010
996
988
980
975
972
968
962
957
953
953
952
947
941
939
935
942
945
942
934
934
936
942
943
939
937
932
932
934
936
936
932
930
928
931
932
931
927
925
927
929
929
923
921
917
920
921
922
918
914
910
909
911
913
912
908
904
905
905
905
899
896
895
895
896
896
892
891
891
891
895
899
897
899
905
910
913
918
920
919
921
928
937
941
947
945
949
957
965
972
974
973
971
976
981
986
985
986
987
987
989
988
986
986
984
988
990
992
987
983
985
984
988
988
987
982
982
983
987
990
985
984
983
983
985
986
984
984
980
979
983
985
983
980
980
981
984
982
980
979
977
978
984
986
985
983
980
981
982
985
987
983
980
979
983
987
984
983
982
983
984
988
986
982
980
982
985
990
988
981
982
983
988
992
989
985
985
989
994
995
997
999
1001
1004
1005
1003
996
992
988
993
999
1003
1004
1001
999
1000
1005
1006
1005
1003
1001
1004
1005
1007
1001
998
1002
1002
999
997
993
988
987
988
987
986
983
984
982
987
992
993
983
979
979
983
987
994
992
988
985
985
986
989
987
986
989
990
993
994
995
1001
1011
1029
1055
1077
1096
1116
1135
1156
1177
1203
1231
1260
1294
1335
1375
1403
1414
1411
1387
1351
1297
1236
1179
1133
1108
1095
1089
1090
1088
1082
1076
1070
1067
1061
1052
1040
1034
1031
1030
1024
1012
999
992
986
984
979
969
963
958
956
960
957
953
952
949
948
950
951
949
945
940
944
945
943
939
942
940
943
946
944
939
934
931
937
940
941
941
936
932
931
934
936
935
929
924
925
921
927
924
919
919
920
919
917
915
910
908
907
910
910
909
906
903
903
910
911
907
906
905
906
910
912
912
912
912
919
925
927
925
926
928
936
945
950
953
956
959
966
977
983
984
983
984
988
990
992
990
990
988
990
995
996
994
993
993
992
993
996
996
994
992
990
992
991
993
993
992
994
994
996
995
994
992
988
993
995
995
991
986
985
992
997
994
995
989
991
992
992
990
990
992
996
998
999
995
995
992
994
1000
1000
997
990
990
995
999
1002
1000
995
994
993
998
1001
998
996
997
996
998
998
998
994
994
997
1001
1005
1005
1005
1006
1007
1010
1013
1009
1004
1005
1008
1010
1018
1017
1014
1011
1012
1012
1015
1011
1009
1010
1012
1014
1012
1008
1003
1001
1002
1002
1001
997
996
994
995
998
1000
999
995
991
996
999
999
998
992
990
989
993
999
999
993
992
993
997
999
1002
1002
1002
1000
1001
1002
1000
1013
1031
1057
1087
1108
1131
1153
1184
1223
1263
1305
1342
1378
1412
1432
1441
1444
1437
1412
1366
1294
1214
1157
1119
1097
1085
1080
1082
1078
1073
1065
1055
1050
1043
1039
1034
1032
1029
1024
1022
1016
1005
995
985
981
980
976
970
960
958
959
959
962
958
955
953
953
955
955
954
951
948
949
953
954
954
949
945
947
947
950
950
948
945
940
944
939
939
938
934
938
939
936
933
929
926
927
927
928
921
917
911
914
918
920
917
912
906
906
908
912
913
907
908
911
917
922
920
921
921
923
928
936
940
941
945
953
961
964
965
970
973
980
985
990
992
995
994
996
996
1000
995
991
994
995
997
1001
997
992
992
993
998
999
993
992
988
990
996
997
995
992
990
987
994
996
994
991
988
990
991
995
993
989
986
987
992
994
994
992
990
992
991
995
995
991
992
995
995
996
993
990
987
987
993
995
992
989
989
992
995
997
996
989
988
990
992
996
993
990
990
992
997
1004
1008
1002
999
1002
1006
1008
1008
1006
1004
1006
1009
1012
1010
1007
1002
998
1000
1005
1004
1002
998
998
998
997
994
988
987
984
985
984
984
982
983
983
987
991
988
983
977
980
983
985
986
984
981
981
985
989
988
988
984
984
988
991
990
987
1002
1024
1051
1072
1090
1110
1129
1156
1194
1237
1276
1311
1349
1383
1412
1427
1424
1399
1342
1267
1195
1148
1123
1107
1093
1092
1090
1091
1081
1067
1056
1046
1044
1038
1033
1022
1008
1001
993
988
979
971
960
953
953
951
948
942
942
942
941
941
940
939
935
936
938
937
935
934
930
933
935
937
933
925
923
925
925
925
927
921
920
918
918
920
914
913
908
908
910
906
906
905
901
899
904
901
898
896
891
892
892
892
892
891
888
891
889
891
889
890
892
895
899
903
906
909
916
922
930
935
934
937
938
948
956
964
967
971
969
971
977
980
981
979
977
976
980
983
983
981
978
980
981
985
983
983
979
977
977
979
979
979
975
979
978
981
978
976
974
976
979
979
979
973
969
971
975
981
978
975
973
973
978
978
975
971
970
971
975
976
973
970
970
972
976
980
978
975
969
969
976
978
980
976
970
973
979
980
977
975
970
974
978
981
988
985
981
984
988
995
994
989
985
985
991
998
999
998
993
992
989
989
991
994
990
989
986
988
985
980
977
974
975
978
976
971
971
973
975
977
972
970
968
970
979
977
978
972
969
970
975
975
974
974
972
975
978
981
982
986
1000
1022
1057
1088
1106
1124
1148
1175
1223
1272
1315
1354
1389
1415
1430
1442
1436
1418
1384
1327
1264
1199
1148
1113
1095
1089
1088
1086
1078
1068
1061
1050
1048
1044
1035
1027
1018
1010
1006
1001
992
982
971
964
956
957
950
944
941
939
939
936
929
924
923
924
930
931
925
919
917
918
922
926
925
920
915
914
915
921
922
918
914
911
912
914
907
908
903
904
908
908
904
899
893
894
900
898
895
888
882
883
888
887
884
878
880
881
881
879
878
871
870
868
870
873
877
876
877
878
878
881
886
891
894
897
902
907
909
915
919
926
936
942
944
946
948
954
960
966
966
967
967
970
975
976
972
971
971
972
977
975
979
973
970
972
974
976
975
972
967
964
969
974
974
970
970
968
972
972
973
971
968
969
968
974
971
969
969
970
972
971
970
966
967
969
971
975
974
972
969
971
973
973
973
971
968
971
976
979
978
974
970
971
974
976
974
975
972
969
971
972
976
977
976
980
986
987
986
986
989
991
990
989
988
986
983
988
994
993
992
991
989
991
995
998
996
990
984
985
987
987
989
985
979
977
977
975
978
975
973
970
976
975
974
973
972
971
974
976
977
971
970
973
975
978
977
974
972
973
977
980
983
981
977
977
982
994
1012
1039
1063
1085
1105
1126
1148
1167
1196
1231
1272
1314
1353
1394
1424
1441
1443
1426
1384
1319
1246
1179
1134
1103
1084
1073
1066
1065
1063
1061
1054
1048
1041
1035
1033
1028
1021
1014
1007
1000
998
992
982
972
963
958
956
952
951
947
938
935
933
939
938
936
933
932
933
935
932
926
925
927
931
935
930
926
921
924
924
930
930
926
924
923
922
924
921
922
916
916
915
917
915
911
911
912
913
912
913
906
902
901
900
903
900
895
888
889
887
892
890
885
883
884
884
883
880
878
878
882
886
889
889
886
887
892
897
905
909
909
911
917
928
936
938
941
942
942
949
955
958
965
965
967
971
974
975
976
974
979
981
978
978
975
976
977
980
981
981
975
974
974
976
981
980
975
971
973
975
977
977
973
969
970
968
974
972
972
970
966
970
972
974
970
969
970
971
973
972
969
969
970
973
976
974
969
967
970
972
977
975
971
969
972
974
981
979
973
967
967
972
977
978
973
971
972
972
978
977
978
974
974
975
979
982
980
976
982
988
993
990
986
984
985
989
993
990
988
989
991
993
995
992
988
987
989
988
993
991
985
982
981
980
985
984
976
971
970
972
972
972
972
970
970
972
973
969
967
967
969
970
973
972
972
968
972
975
979
976
974
971
973
973
979
984
993
1010
1034
1057
1075
1093
1110
1127
1151
1188
1231
1274
1320
1364
1405
1440
1465
1467
1459
1439
1400
1335
1259
1188
1141
1111
1093
1087
1085
1078
1068
1059
1048
1043
1039
1029
1023
1015
1008
1003
1000
993
982
974
968
961
956
949
939
938
935
936
937
933
930
925
925
928
930
928
925
923
922
922
924
923
920
918
919
918
921
917
910
910
910
915
912
915
913
905
904
905
911
908
905
903
903
904
905
901
896
894
893
896
897
896
890
888
886
886
887
886
880
878
875
876
879
878
874
871
872
875
873
874
872
868
874
875
882
883
883
885
888
894
901
904
908
907
913
920
924
931
934
939
944
951
955
957
953
954
959
965
969
971
970
969
970
971
978
978
977
976
975
976
979
977
973
971
976
976
982
979
974
971
973
976
978
980
975
975
970
971
976
978
971
972
969
973
975
971
969
968
968
973
974
971
967
965
968
971
974
973
969
963
962
965
970
967
969
969
969
968
974
971
968
965
967
972
974
973
970
965
969
973
976
976
974
971
970
972
976
972
973
971
973
972
974
973
970
967
973
973
973
973
971
972
974
980
986
987
990
986
989
994
998
998
994
991
992
992
995
996
997
997
996
995
993
991
989
989
990
989
994
987
983
979
979
980
984
980
977
970
967
967
968
972
971
969
972
974
972
969
964
968
969
967
971
969
965
965
969
970
971
973
973
969
969
973
977
979
978
975
976
980
990
1007
1026
1040
1059
1073
1087
1102
1119
1136
1159
1187
1228
1271
1314
1356
1399
1428
1448
1457
1451
1429
1381
1324
1264
1214
1175
1147
1118
1101
1093
1087
1083
1080
1073
1067
1059
1048
1040
1032
1030
1027
1020
1009
1005
995
990
983
978
969
963
952
950
944
944
940
935
932
929
928
928
925
923
920
923
926
931
931
926
920
920
919
917
913
911
908
913
912
912
907
904
905
906
911
912
906
905
902
904
908
914
912
908
903
901
903
904
902
899
892
892
891
890
885
883
883
880
884
885
883
879
874
865
864
867
864
865
861
858
859
858
858
858
862
870
878
884
887
884
888
894
900
903
904
905
906
912
917
916
913
910
911
917
924
934
939
939
942
947
957
960
959
957
956
959
963
969
968
971
969
972
972
974
973
969
968
969
973
974
976
974
974
974
976
980
978
971
971
974
978
978
977
973
968
968
968
967
966
962
960
962
965
969
971
968
970
969
973
973
971
963
965
964
967
972
974
976
971
970
969
970
964
960
954
954
960
964
965
964
962
961
965
963
960
956
951
952
958
963
967
964
962
964
972
974
972
966
963
966
968
973
973
966
959
956
956
957
960
959
960
964
970
973
978
968
958
957
957
962
965
970
972
976
979
982
977
975
971
975
981
987
989
990
989
990
990
990
985
975
970
969
970
969
971
971
974
978
981
977
974
970
964
967
973
981
985
988
985
982
979
978
976
978
981
986
992
997
995
994
992
989
989
987
984
983
986
994
1003
1006
1005
997
995
997
999
994
985
979
976
977
976
981
980
972
965
960
961
967
962
954
953
957
964
971
975
973
973
976
981
983
979
973
971
970
968
964
959
955
951
951
961
968
979
981
978
981
991
1010
1032
1055
1064
1075
1086
1105
1126
1151
1178
1221
1272
1328
1373
1411
1436
1447
1445
1428
1385
1322
1243
1180
1135
1111
1090
1073
1060
1049
1047
1047
1049
1047
1041
1036
1030
1024
1017
1006
1001
1000
1002
994
983
971
962
955
949
943
940
940
936
936
942
943
936
923
906
895
891
901
913
922
922
920
915
914
914
916
916
916
917
913
912
911
912
915
922
923
923
915
902
899
898
906
907
906
901
895
899
905
901
895
886
877
882
888
887
887
883
875
871
868
866
869
867
870
873
878
877
873
871
865
860
859
865
872
880
886
889
893
892
888
888
893
899
905
901
901
902
904
912
920
929
943
951
951
950
943
940
937
937
945
953
958
962
960
952
952
950
942
931
921
922
924
932
938
945
942
938
935
935
940
943
947
949
950
948
947
945
939
932
927
921
913
915
922
931
938
938
942
941
939
941
951
957
957
947
937
933
936
936
937
937
937
933
933
937
940
943
946
940
939
936
929
926
921
927
931
938
946
934
924
925
935
945
954
948
935
922
915
920
927
936
946
951
949
944
939
933
935
935
941
940
940
938
938
942
949
951
951
949
949
955
961
964
967
955
943
933
933
940
942
938
933
923
922
925
931
933
932
933
930
931
930
933
927
926
922
920
927
929
929
931
936
936
941
935
936
934
936
933
937
941
949
965
991
1020
1043
1059
1087
1114
1145
1181
1213
1238
1263
1298
1346
1384
1403
1380
1332
1260
1179
1109
1070
1044
1030
1024
1021
1023
1024
1019
1011
1005
997
992
984
969
958
943
938
940
940
938
930
914
904
897
895
896
889
895
904
906
909
905
900
898
898
899
906
904
898
890
888
890
900
905
902
894
889
892
900
903
900
897
893
892
893
889
885
884
885
891
896
897
887
878
871
881
889
888
884
879
877
881
880
879
880
880
883
885
885
887
881
886
893
901
909
912
916
919
923
927
929
931
931
932
941
950
957
956
956
954
955
961
964
966
964
961
964
963
967
963
962
961
961
967
969
973
973
971
970
968
969
964
954
951
956
960
966
966
963
954
956
960
965
968
968
968
967
968
973
973
967
962
961
961
963
968
967
969
969
972
975
972
974
973
974
978
982
981
974
967
968
968
971
970
969
969
971
976
978
975
970
962
967
972
978
977
973
970
963
962
966
969
977
976
978
979
979
978
977
975
979
989
990
986
983
985
985
991
989
983
979
978
980
984
985
982
979
979
977
980
983
982
980
976
970
971
971
967
964
963
966
968
969
967
966
968
968
970
972
974
973
973
977
976
971
965
965
969
976
983
988
990
997
1010
1026
1051
1071
1090
1106
1126
1151
1185
1221
1260
1307
1347
1374
1392
1392
1371
1316
1245
1172
1121
1093
1075
1063
1051
1043
1037
1036
1032
1026
1017
1010
1001
998
993
991
988
985
977
975
965
956
951
953
950
951
946
940
936
940
946
949
946
947
944
940
939
940
944
944
945
938
938
940
937
935
937
944
946
952
946
939
936
938
939
941
939
935
935
939
942
944
941
934
934
935
938
939
935
931
927
931
932
932
932
931
933
932
934
935
934
929
929
933
938
940
939
938
937
938
944
952
955
956
956
959
964
970
972
974
974
976
982
985
989
989
988
989
991
994
995
995
992
991
989
994
994
994
993
992
994
1000
996
994
990
992
992
993
994
994
995
997
997
994
985
978
975
979
990
998
997
991
988
992
1002
1008
1002
1000
996
996
992
988
985
982
983
988
993
1002
1004
1001
998
993
990
994
991
988
992
995
998
999
999
992
986
986
992
996
1000
999
998
990
987
988
993
995
995
990
986
992
994
994
991
994
997
998
1002
1007
1009
1007
1004
1004
1002
1003
1003
1004
1009
1009
1011
1008
1004
1000
1001
1003
1004
1004
1002
1002
1009
1012
1010
1007
1002
998
998
996
989
983
984
986
990
987
990
991
989
988
990
995
994
994
989
989
992
993
989
988
987
988
988
995
1003
1007
1001
993
1000
1019
1044
1068
1088
1105
1125
1155
1186
1216
1246
1275
1309
1348
1378
1390
1387
1364
1331
1275
1208
1140
1084
1052
1045
1053
1058
1058
1049
1040
1039
1038
1031
1024
1017
1013
1011
1007
1001
997
994
992
986
978
966
962
962
961
961
961
958
952
951
955
960
963
961
953
946
949
954
959
960
956
957
949
951
957
958
956
951
948
949
952
954
951
947
949
947
951
950
945
945
945
946
947
942
940
935
935
937
939
940
937
935
937
938
938
935
930
930
931
932
935
937
935
935
939
945
951
951
946
947
951
954
957
964
961
966
972
978
980
980
982
988
993
998
995
994
991
990
992
996
998
995
991
987
985
987
990
994
995
990
990
991
996
995
992
991
991
993
997
993
992
989
988
991
995
992
992
994
993
996
996
993
988
984
988
995
1000
1001
999
997
994
996
999
1003
1001
994
991
992
996
998
995
993
996
994
1000
997
995
994
989
988
995
997
998
995
998
1001
1007
1002
998
995
995
1002
1005
1007
1003
1001
1002
1005
1005
1005
1003
1000
1000
1004
1009
1009
1007
1011
1014
1019
1019
1015
1011
1003
1005
1008
1010
1010
1005
1002
1004
1003
1002
999
997
995
997
997
1001
1000
1000
999
996
995
996
996
994
990
989
994
998
997
996
996
996
1002
1006
1005
1005
1002
999
1001
1012
1031
1052
1075
1093
1114
1132
1149
1166
1181
1205
1231
1262
1289
1319
1347
1368
1375
1367
1339
1293
1230
1164
1110
1078
1059
1049
1046
1049
1057
1059
1051
1041
1030
1022
1020
1022
1020
1012
1001
992
990
991
986
983
974
969
968
965
960
956
955
956
953
956
953
953
950
951
953
956
956
949
942
942
944
950
950
948
944
942
941
942
941
941
944
943
941
943
939
940
938
937
938
942
941
936
934
928
935
937
937
930
926
924
927
927
925
919
918
917
916
922
921
919
914
916
917
922
923
921
921
925
929
933
935
934
936
938
945
953
956
955
956
964
971
978
977
974
975
979
985
992
992
988
987
988
991
989
991
992
992
996
997
995
992
986
986
986
992
997
994
989
985
987
990
993
992
991
991
990
991
994
989
987
984
986
989
994
994
993
989
990
991
995
995
992
988
988
992
993
995
993
989
994
998
998
995
991
989
988
993
996
995
994
993
991
994
994
995
996
997
993
997
1000
998
991
991
990
1001
1005
1005
1001
1001
1002
1005
1003
1001
991
988
991
997
1006
1009
1009
1005
1006
1009
1012
1015
1010
1008
1005
1005
1008
1006
1004
1000
999
1001
1000
994
990
991
994
995
998
994
994
992
990
994
994
995
991
990
992
992
996
993
993
990
989
994
1000
1003
1001
996
995
999
1011
1031
1053
1072
1087
1105
1126
1147
1166
1188
1217
1250
1276
1301
1325
1347
1364
1375
1373
1359
1327
1278
1222
1171
1131
1105
1091
1088
1088
1089
1091
1088
1083
1072
1064
1057
1051
1040
1029
1025
1022
1020
1020
1014
1005
996
986
984
983
979
975
972
968
967
966
965
964
959
957
954
959
959
954
948
948
953
959
955
953
948
946
952
952
958
957
952
949
949
951
950
949
948
949
948
953
949
943
939
935
939
942
943
937
933
931
932
936
933
932
925
924
919
922
923
920
920
922
922
921
918
916
916
915
917
916
915
916
917
921
925
933
934
933
934
938
947
951
957
962
966
966
975
981
986
983
984
987
991
999
1002
999
997
995
999
1003
1002
999
995
995
999
1001
1004
1000
998
996
1001
1002
1003
998
999
996
1001
1007
1009
1007
1004
1002
1001
998
999
997
994
995
995
1001
999
997
994
991
997
1003
1004
1002
996
992
994
997
1001
999
996
995
996
994
994
991
995
996
997
999
993
997
1000
1004
1005
1007
1003
1001
996
999
1003
1001
1003
999
996
997
1003
1009
1010
1006
1004
1004
1007
1014
1017
1014
1011
1013
1012
1014
1013
1016
1015
1019
1022
1024
1024
1020
1017
1015
1016
1020
1021
1021
1016
1014
1015
1015
1014
1015
1008
1006
1004
1005
1007
1002
995
999
1004
1007
1007
1004
1001
1001
999
1004
1005
1001
998
996
999
1001
1002
1001
999
999
1000
1004
1003
1005
1004
1006
1004
1006
1010
1024
1043
1065
1082
1101
1115
1137
1152
1180
1212
1246
1271
1298
1323
1343
1361
1366
1359
1344
1321
1282
1232
1182
1139
1106
1089
1086
1091
1097
1097
1086
1069
1057
1049
1042
1036
1032
1029
1026
1024
1022
1018
1008
1004
1000
999
994
986
979
972
973
972
971
970
962
957
952
950
951
954
953
955
956
958
957
955
953
953
954
955
955
954
949
946
946
949
948
950
946
940
938
940
943
944
943
940
939
940
940
939
936
931
930
930
932
925
923
918
917
915
920
921
920
917
918
917
919
914
907
903
903
904
907
906
906
896
898
900
903
906
906
905
905
906
908
909
904
909
913
919
929
930
926
929
938
944
956
960
965
964
968
970
975
984
983
982
983
987
991
991
991
992
992
995
995
992
990
987
987
991
997
997
995
991
990
989
993
990
988
985
984
990
990
991
988
981
982
981
988
989
984
983
982
982
984
986
983
982
984
984
985
981
983
981
983
983
984
985
986
985
984
986
987
987
985
986
987
989
990
989
987
983
983
984
987
983
980
978
978
983
991
987
984
976
977
981
981
984
985
985
986
985
991
993
992
984
987
989
990
991
993
994
998
995
999
997
992
989
990
994
999
998
989
984
979
979
980
981
978
973
969
968
973
971
974
971
971
971
970
967
964
962
963
964
971
973
968
965
966
966
970
969
963
960
960
964
967
971
965
959
965
979
1001
1024
1040
1058
1078
1100
1124
1150
1170
1196
1220
1245
1272
1300
1324
1343
1352
1344
1321
1274
1214
1162
1127
1103
1096
1089
1081
1071
1067
1059
1052
1044
1035
1022
1018
1015
1009
1003
994
985
978
974
974
965
959
948
942
940
940
937
933
927
920
923
923
923
921
914
914
915
918
917
914
913
913
913
917
916
912
904
902
902
906
907
908
902
904
907
905
906
902
899
898
899
904
903
904
898
895
896
898
899
892
886
883
888
888
887
883
879
878
880
885
885
878
874
869
871
875
872
870
867
867
870
870
869
872
871
870
872
875
874
874
871
875
878
882
891
891
894
896
904
907
909
913
915
918
924
930
934
936
937
940
943
949
956
953
951
951
956
959
965
968
965
963
968
967
966
960
956
957
961
964
961
959
959
962
965
968
965
965
961
961
962
961
960
959
960
959
959
963
962
959
959
959
961
962
961
959
958
958
961
962
959
959
959
958
959
960
960
960
960
959
961
964
961
957
957
956
960
964
965
961
954
951
958
962
964
964
960
956
956
959
959
959
957
957
959
967
966
964
961
958
960
964
961
963
961
964
970
974
975
974
973
971
973
974
973
971
972
971
977
982
979
977
971
969
973
976
978
976
972
973
976
976
973
971
969
966
966
968
967
967
962
963
966
966
969
969
965
963
959
959
956
950
952
953
958
961
962
958
953
954
957
958
962
961
956
958
961
966
972
979
995
1008
1024
1040
1050
1066
1079
1104
1131
1162
1196
1226
1257
1287
1311
1330
1338
1330
1311
1280
1240
1207
1173
1147
1123
1105
1092
1084
1079
1070
1058
1051
1044
1036
1024
1012
1006
1000
997
994
988
979
969
964
959
956
952
947
939
929
927
923
919
918
913
913
916
916
918
911
908
906
909
909
915
912
909
904
901
904
902
897
892
895
893
894
894
889
891
891
893
897
894
889
887
885
887
889
887
880
879
878
877
878
879
876
871
870
865
866
866
864
859
858
858
863
863
859
855
849
854
859
863
861
860
858
865
869
870
869
865
869
872
876
881
882
885
891
898
905
909
913
916
922
927
933
936
939
942
943
945
947
948
945
945
948
952
956
958
959
959
963
958
952
946
942
942
947
957
966
970
969
962
955
954
955
955
958
958
958
961
967
971
967
962
957
955
955
953
952
948
950
954
960
960
961
955
952
947
944
945
944
948
960
963
960
951
941
938
937
936
935
931
932
934
943
954
959
956
950
944
939
944
949
955
954
954
953
953
956
955
952
946
946
947
952
956
957
957
956
963
971
977
981
977
971
967
971
970
968
965
963
963
964
965
968
970
976
979
978
972
960
948
941
945
953
963
971
970
973
972
970
966
966
959
954
953
953
954
954
945
936
932
936
941
953
962
965
966
967
967
966
960
960
978
1004
1033
1054
1068
1081
1095
1110
1129
1151
1177
1208
1246
1275
1287
1289
1283
1270
1238
1190
1144
1105
1084
1075
1076
1073
1065
1054
1043
1038
1045
1046
1029
1005
983
977
971
970
967
959
952
949
944
937
930
925
925
926
930
923
924
925
925
923
911
906
900
901
903
905
908
913
917
925
930
931
929
929
929
925
916
907
900
899
905
916
923
917
905
892
887
891
894
892
886
880
878
879
875
869
867
877
892
901
899
891
886
891
892
889
878
871
879
888
888
880
888
916
932
923
898
899
926
952
955
940
918
906
909
913
917
934
953
974
972
962
956
969
983
994
986
967
946
939
946
959
974
976
971
972
969
958
946
933
938
955
973
984
984
975
965
964
977
987
986
968
951
951
958
968
964
961
970
986
987
962
936
929
939
958
961
966
965
967
964
964
962
960
963
972
984
991
983
965
939
931
944
967
990
988
957
923
921
956
991
1000
989
972
966
978
994
989
974
965
976
987
976
957
957
973
983
987
1001
1009
1006
990
977
980
996
1005
1004
978
964
958
959
967
985
996
990
971
959
964
976
979
975
973
982
989
981
975
985
988
963
939
924
922
925
933
943
939
933
940
966
988
991
987
980
964
953
977
1008
1031
1043
1060
1082
1109
1142
1180
1222
1268
1308
1328
1321
1289
1250
1204
1166
1143
1129
1119
1106
1091
1068
1042
1017
1000
1005
1009
1016
1002
968
935
921
924
936
950
969
980
980
955
927
914
912
907
889
889
899
911
921
920
915
914
925
939
945
936
917
899
876
868
867
867
857
874
912
930
907
867
842
838
846
873
900
904
872
832
819
845
878
873
853
853
866
870
859
859
869
857
824
809
822
841
845
837
837
843
856
871
877
871
852
838
840
861
879
902
931
948
944
927
922
920
904
888
885
886
885
891
902
919
930
947
965
982
979
966
953
944
930
917
922
931
928
923
940
964
970
949
927
926
935
952
958
942
918
908
912
920
921
925
929
925
914
899
893
888
897
923
964
1013
1055
1073
1057
1033
1040
1084
1136
1172
1168
1140
1114
1104
1088
1046
985
925
875
847
845
857
873
881
885
868
840
837
861
892
897
896
898
908
921
929
935
950
960
955
942
952
983
988
955
910
894
909
927
950
981
1011
1021
1002
976
965
960
955
949
939
928
936
967
1005
1043
1068
1064
1025
974
939
945
980
997
984
990
1027
1043
1011
982
1011
1065
1084
1067
1037
1007
982
971
983
1027
1062
1087
1086
1074
1066
1078
1089
1085
1072
1068
1098
1127
1116
1051
1000
994
1017
1048
1098
1143
1137
1106
1100
1107
1092
1047
1004
961
917
908
974
1059
1105
1084
1040
1017
1014
1017
1012
985
952
931
932
952
991
1013
996
949
918
920
945
993
1052
1101
1101
1062
1022
998
963
910
882
903
942
963
977
975
956
946
966
1002
1028
1036
1030
1014
982
949
945
959
972
985
988
962
923
912
938
981
1003
990
962
952
982
1022
1023
983
927
894
882
887
915
972
1023
1043
1015
965
932
962
1037
1088
1078
1018
939
886
887
927
967
980
972
974
1007
1043
1042
979
905
864
865
888
919
951
978
979
953
919
910
935
967
974
965
943
901
860
853
886
951
1010
1033
1014
973
927
907
914
949
985
1015
1031
1031
1003
954
920
940
997
1016
963
877
848
893
944
946
924
905
916
941
967
969
966
979
994
989
957
933
949
976
989
993
1008
1028
1023
967
883
834
857
920
971
990
1004
1002
999
997
993
966
929
920
950
988
1004
995
982
989
996
986
953
928
948
986
992
951
910
886
882
902
946
981
1002
1001
986
966
952
940
934
943
973
1010
1040
1045
1016
960
918
935
1004
1058
1047
974
904
906
967
1007
974
918
896
924
958
956
925
897
909
946
986
1004
997
974
942
920
918
927
937
934
923
916
926
954
964
956
954
979
1007
1004
963
914
890
908
947
964
936
898
878
908
962
1018
1054
1062
1041
1011
999
1015
1050
1095
1140
1171
1199
1236
1277
1310
1336
1349
1363
1371
1361
1321
1252
1170
1102
1063
1057
1070
1078
1070
1059
1058
1061
1055
1022
973
931
917
913
901
897
905
920
939
967
990
968
914
872
867
892
942
986
986
916
818
749
739
783
855
927
969
963
898
802
739
755
829
888
894
859
834
833
856
887
912
936
929
870
809
792
818
854
872
881
878
867
849
834
836
841
832
829
849
873
882
866
832
804
797
801
791
778
774
786
804
819
834
845
851
829
790
767
769
791
812
820
828
841
855
865
861
849
833
830
832
839
855
878
907
915
897
864
850
863
889
911
915
909
907
912
920
924
918
915
928
944
939
910
892
896
915
928
925
907
895
892
895
900
903
910
917
915
907
901
896
899
901
904
912
913
907
899
900
912
926
938
941
931
906
885
879
888
902
909
914
923
923
911
890
878
874
883
896
900
902
901
906
914
924
925
914
900
895
898
909
913
908
895
887
888
900
909
917
921
922
921
921
922
